,Revenue,COGS,Gross Profit,Gross Profit Ratio,Research and Development Exp.,"Selling, General and Administrative Exp.",Other Expenses,Operating Expenses,COGS and Expenses,Interest Income,Interest Expense (Gain),Depreciation and Amortization,EBITDA,EBITDA Ratio,Operating Income,Operating Income Ratio,Total Other Income Expenses (Gains),Income Before Tax,Income Before Tax Ratio,Income Tax expense (Gain),Net Income,Net Income Ratio,EPS,EPS Diluted,Weighted Average Shares Outstanding,Weighted Average Shares Outstanding Diluted,Cash and Cash Equivalents,Short-Term Investments,Cash and Short-Term Investments,Net Receivables,Inventory (Balance),Other Current Assets,Total Current Assets,PP&E,Goodwill,Intangible Assets,Goodwill and Intangible Assets,Investments,Tax Assets,Other Non-Current Assets,Total Non-Current Assets,Other Assets,Total Assets,Accounts Payable (Balance),Short-Term Debt,Tax Payable,Deferred Revenue (Current),Other Current Liabilities,Total Current Liabilities,Long-Term Debt,Deferred Revenue (Non-Current),Deferred Tax Liabilities,Other Non-Current Liabilities,Total Non-Current Liabilities,Other Liabilities,Capital Lease Obligations,Total Liabilities,Preferred Stock,Common Stock,Retained Earnings,Other Comprehensive Income/Loss,Other Total Stockholders Equity,Total Stockholders Equity,Total Liabilities And Stockholders Equity,Minority Interest,Total Liabilities & Equity,Net Income (Cash Flow),Depreciation and Amortization (Cash Flow),Deferred Income Tax,Stock Based Compensation,Change in Working Capital,Accounts Receivable,Inventory (Cash Flow),Accounts Payable (Cash Flow),Other Working Capital,Other Non-Cash Items,Cash Provided by Operating Activities,CAPEX,Acquisitions Net,Purchases of Investments,Sales/Maturities of Investments,Other Investing Activities,Cash Used for Investing Activites,Debt Repayment,Common Stock Issued,Common Stock Repurchased,Dividends Paid,Other Financing Activites,Cash Used/Provided by Financing Activities,Effect of Forex Changes on Cash,Net Change In Cash,Cash at the End of Period,Cash at the Beginning of Period,Free Cash Flow,Open,Close,Adj Close,Volume,Dividend,Dividend Cum,Price with cum Dividends
1994,6331200000,3865500000,2465700000,0.3895,218100000.0,919000000,317500000,1454600000,5320100000,0.0,0.0,335200000.0,1175000000,0.1856,1011100000,0.1597,-171300000,839800000,0.1326,325200000,514600000,0.0813,1.22,1.22,423800000,428800000,62100000.0,0.0,62100000.0,1228900000.0,686400000.0,190800000.0,2168200000.0,2742300000.0,0.0,0.0,0.0,0.0,0.0,983400000.0,3725700000.0,0.0,5893900000.0,517800000.0,370700000.0,0.0,0.0,536000000.0,1424500000.0,745000000.0,0.0,302700000.0,794400000.0,1842100000.0,0.0,0.0,3266600000.0,0.0,484300000.0,3717100000.0,-3420400000.0,1776000000.0,2557000000.0,5823600000.0,70300000.0,5893900000.0,514600000.0,335200000.0,0.0,0.0,743700000.0,0.0,-25600000.0,0.0,743700000.0,-902400000.0,691100000.0,-321800000.0,-33900000.0,0.0,0.0,110300000.0,-245400000.0,0.0,19400000.0,-280000000.0,-237800000.0,800000.0,-497600000.0,2100000.0,-49800000.0,62100000.0,111900000.0,369300000.0,19.065,19.065,9.37,13628400.0,0.56,0.56,9.93
1995,7057700000,4212100000,2845600000,0.4032,236400000.0,977100000,331500000,1545000000,5757100000,0.0,0.0,351600000.0,1598900000,0.2265,1300600000,0.1843,-53300000,1247300000,0.1767,479700000,767600000,0.1088,1.9,1.9,404000000,412800000,105600000.0,0.0,105600000.0,1245100000.0,737500000.0,187300000.0,2275500000.0,2834800000.0,0.0,0.0,0.0,0.0,0.0,1084000000.0,3918800000.0,0.0,6194300000.0,583400000.0,485300000.0,0.0,0.0,560700000.0,1629400000.0,706800000.0,0.0,354900000.0,865800000.0,1927500000.0,0.0,0.0,3556900000.0,0.0,484300000.0,4249000000.0,-3629200000.0,1465100000.0,2569200000.0,6126100000.0,68200000.0,6194300000.0,767600000.0,351600000.0,0.0,0.0,-97600000.0,0.0,-47100000.0,0.0,646100000.0,50400000.0,1072000000.0,-447800000.0,-6600000.0,0.0,0.0,178900000.0,-275500000.0,0.0,7400000.0,-588000000.0,-238900000.0,66600000.0,-752900000.0,-100000.0,43500000.0,105600000.0,62100000.0,624200000.0,20.94,21.315,10.935,13799600.0,0.59,1.15,12.085
1996,7218100000,4340300000,2877800000,0.3987,239100000.0,1004300000,340200000,1583600000,5923900000,0.0,0.0,362600000.0,1577600000,0.2186,1294200000,0.1793,-79200000,1215000000,0.1683,471000000,744000000,0.1031,1.98,1.98,375600000,382400000,69600000.0,0.0,69600000.0,1225600000.0,796500000.0,204700000.0,2296400000.0,2913500000.0,0.0,0.0,0.0,0.0,0.0,1231500000.0,4145000000.0,0.0,6441400000.0,601900000.0,648300000.0,0.0,0.0,518700000.0,1768900000.0,806100000.0,0.0,419100000.0,888500000.0,2113700000.0,0.0,0.0,3882600000.0,0.0,484300000.0,4759800000.0,-3774700000.0,1013200000.0,2482600000.0,6365200000.0,76200000.0,6441400000.0,744000000.0,362600000.0,0.0,0.0,-118600000.0,0.0,-56100000.0,0.0,527500000.0,19900000.0,1007900000.0,-475900000.0,-12600000.0,0.0,0.0,20100000.0,-468400000.0,0.0,26800000.0,-635100000.0,-236600000.0,269800000.0,-575100000.0,-400000.0,-36000000.0,69600000.0,105600000.0,532000000.0,24.5,25.0,13.08,12851500.0,0.95,2.0999999999999996,15.18
1997,7379000000,4397000000,2982000000,0.4041,250000000.0,1068000000,348000000,1666000000,6063000000,0.0,0.0,373000000.0,1522000000,0.2063,1316000000,0.1783,-167000000,1149000000,0.1557,435000000,714000000,0.0968,1.99,1.97,359697733,362436548,129000000.0,0.0,129000000.0,1353000000.0,863000000.0,239000000.0,2584000000.0,2855000000.0,0.0,0.0,0.0,0.0,0.0,1429000000.0,4284000000.0,0.0,6868000000.0,646000000.0,444000000.0,0.0,0.0,572000000.0,1662000000.0,1216000000.0,0.0,406000000.0,993000000.0,2615000000.0,0.0,0.0,4277000000.0,0.0,484000000.0,5239000000.0,-3903000000.0,689000000.0,2509000000.0,6786000000.0,82000000.0,6868000000.0,714000000.0,373000000.0,0.0,0.0,394500000.0,0.0,-60000000.0,0.0,922000000.0,-474500000.0,1007000000.0,-466000000.0,-363000000.0,0.0,0.0,246000000.0,-583000000.0,0.0,14000000.0,-343000000.0,-239000000.0,208000000.0,-360000000.0,-5000000.0,59000000.0,129000000.0,70000000.0,541000000.0,28.75,28.765,15.695,11610100.0,0.665,2.7649999999999997,18.46
1998,7510000000,4476000000,3034000000,0.404,271000000.0,1133000000,354000000,1758000000,6234000000,0.0,0.0,383000000.0,1650000000,0.2197,1276000000,0.1699,-9000000,1267000000,0.1687,466000000,801000000,0.1067,2.26,2.26,354424779,358000000,128000000.0,0.0,128000000.0,1366000000.0,917000000.0,249000000.0,2660000000.0,2905000000.0,0.0,576000000.0,576000000.0,0.0,0.0,1246000000.0,4727000000.0,0.0,7387000000.0,630000000.0,637000000.0,0.0,0.0,645000000.0,1912000000.0,1047000000.0,0.0,440000000.0,1021000000.0,2508000000.0,0.0,0.0,4420000000.0,0.0,484000000.0,5791000000.0,-3834000000.0,439000000.0,2880000000.0,7300000000.0,87000000.0,7387000000.0,801000000.0,383000000.0,0.0,0.0,-174000000.0,0.0,-73000000.0,0.0,748000000.0,-68000000.0,942000000.0,-487000000.0,-390000000.0,0.0,0.0,296000000.0,-581000000.0,0.0,22000000.0,-217000000.0,-252000000.0,86000000.0,-361000000.0,-1000000.0,-1000000.0,128000000.0,129000000.0,455000000.0,31.095,31.14,17.345,14495100.0,0.71,3.4749999999999996,20.82
1999,7757000000,4719000000,3038000000,0.3916,284000000.0,1230000000,415000000,1929000000,6648000000,0.0,0.0,419000000.0,1364000000,0.1758,1109000000,0.143,-164000000,945000000,0.1218,377000000,568000000,0.0732,1.64,1.61,347400612,351702786,158000000.0,0.0,158000000.0,1594000000.0,1016000000.0,294000000.0,3062000000.0,2933000000.0,0.0,1662000000.0,1662000000.0,0.0,0.0,1257000000.0,5852000000.0,0.0,8914000000.0,755000000.0,954000000.0,0.0,0.0,675000000.0,2384000000.0,1826000000.0,0.0,520000000.0,980000000.0,3326000000.0,0.0,0.0,5710000000.0,0.0,484000000.0,6098000000.0,-3926000000.0,450000000.0,3106000000.0,8816000000.0,98000000.0,8914000000.0,568000000.0,419000000.0,0.0,0.0,-70000000.0,0.0,-7000000.0,0.0,678000000.0,-15000000.0,902000000.0,-490000000.0,-1343000000.0,0.0,0.0,189000000.0,-1644000000.0,0.0,9000000.0,-82000000.0,-264000000.0,1110000000.0,773000000.0,-1000000.0,30000000.0,158000000.0,128000000.0,412000000.0,29.685,29.905,17.03,16231600.0,0.76,4.234999999999999,21.265
2000,8629000000,5334000000,3295000000,0.3819,282000000.0,1364000000,447000000,2093000000,7427000000,0.0,0.0,447000000.0,1436000000,0.1664,1202000000,0.1393,-213000000,989000000,0.1146,369000000,620000000,0.0719,1.8,1.78,344444444,347338936,111000000.0,0.0,111000000.0,1563000000.0,1121000000.0,298000000.0,3093000000.0,2941000000.0,0.0,1648000000.0,1648000000.0,0.0,0.0,1443000000.0,6032000000.0,0.0,9125000000.0,764000000.0,1161000000.0,0.0,0.0,618000000.0,2543000000.0,1800000000.0,0.0,543000000.0,1014000000.0,3357000000.0,0.0,0.0,5900000000.0,0.0,484000000.0,6444000000.0,-4148000000.0,317000000.0,3097000000.0,8997000000.0,128000000.0,9125000000.0,620000000.0,447000000.0,0.0,0.0,-128000000.0,0.0,-92000000.0,0.0,550000000.0,-69000000.0,870000000.0,-561000000.0,-115000000.0,0.0,0.0,40000000.0,-636000000.0,0.0,4000000.0,-247000000.0,-276000000.0,241000000.0,-278000000.0,-3000000.0,-47000000.0,111000000.0,158000000.0,309000000.0,23.435,22.735,13.49,24085800.0,0.8,5.034999999999999,18.525
2001,8169000000,5137000000,3032000000,0.3712,266000000.0,1395000000,447000000,2108000000,7245000000,0.0,0.0,447000000.0,1081000000,0.1323,924000000,0.1131,-290000000,634000000,0.0776,247000000,387000000,0.0474,1.15,1.15,336521739,337991266,108000000.0,0.0,108000000.0,1416000000.0,904000000.0,275000000.0,2703000000.0,2752000000.0,0.0,1542000000.0,1542000000.0,0.0,0.0,1455000000.0,5749000000.0,0.0,8452000000.0,610000000.0,696000000.0,0.0,0.0,649000000.0,1955000000.0,1689000000.0,0.0,552000000.0,1054000000.0,3295000000.0,0.0,0.0,5250000000.0,0.0,484000000.0,6551000000.0,-4401000000.0,446000000.0,3080000000.0,8330000000.0,122000000.0,8452000000.0,387000000.0,447000000.0,0.0,0.0,198000000.0,0.0,187000000.0,0.0,748000000.0,28000000.0,1060000000.0,-291000000.0,-10000000.0,0.0,0.0,56000000.0,-245000000.0,0.0,13000000.0,-5000000.0,-283000000.0,-541000000.0,-816000000.0,-2000000.0,-3000000.0,108000000.0,111000000.0,769000000.0,25.885,26.07,15.905,31261500.0,0.84,5.874999999999999,21.779999999999998
2002,8067000000,5066000000,3001000000,0.372,273000000.0,1419000000,398000000,2090000000,7156000000,0.0,0.0,398000000.0,322000000,0.0399,911000000,0.1129,-939000000,-28000000,-0.0035,-7000000,-69000000,-0.0086,-0.2,-0.2,336585366,336585366,117000000.0,0.0,117000000.0,1486000000.0,942000000.0,400000000.0,2945000000.0,2632000000.0,0.0,1561000000.0,1561000000.0,0.0,0.0,725000000.0,4918000000.0,0.0,7863000000.0,1378000000.0,352000000.0,0.0,0.0,190000000.0,1920000000.0,1689000000.0,0.0,64000000.0,1909000000.0,3662000000.0,0.0,10000000.0,5582000000.0,0.0,484000000.0,6197000000.0,-4638000000.0,107000000.0,2150000000.0,7732000000.0,131000000.0,7863000000.0,-69000000.0,398000000.0,0.0,0.0,277000000.0,0.0,-9000000.0,0.0,1025000000.0,266000000.0,872000000.0,-238000000.0,-22000000.0,0.0,0.0,48000000.0,-212000000.0,0.0,32000000.0,0.0,-287000000.0,-400000000.0,-655000000.0,4000000.0,9000000.0,117000000.0,108000000.0,634000000.0,25.94,25.915,16.07,33912400.0,0.845,6.719999999999999,22.79
2003,8756000000,5521000000,3235000000,0.3695,290000000.0,1578000000,394000000,2262000000,7783000000,0.0,0.0,394000000.0,1181000000,0.1349,973000000,0.1111,-473000000,500000000,0.0571,293000000,494000000,0.0564,1.46,1.45,339518900,341868512,499000000.0,0.0,499000000.0,1631000000.0,997000000.0,410000000.0,3537000000.0,2566000000.0,0.0,1652000000.0,1652000000.0,0.0,0.0,669000000.0,4887000000.0,0.0,8424000000.0,1504000000.0,327000000.0,0.0,0.0,308000000.0,2139000000.0,1339000000.0,0.0,88000000.0,1810000000.0,3237000000.0,0.0,0.0,5376000000.0,0.0,484000000.0,6399000000.0,-5054000000.0,1082000000.0,2911000000.0,8287000000.0,137000000.0,8424000000.0,494000000.0,394000000.0,0.0,0.0,373000000.0,0.0,11000000.0,0.0,1398000000.0,-138000000.0,1123000000.0,-217000000.0,-3000000.0,0.0,0.0,54000000.0,-166000000.0,0.0,86000000.0,0.0,-294000000.0,-385000000.0,-593000000.0,18000000.0,382000000.0,499000000.0,117000000.0,906000000.0,25.285,25.74,16.715,29598600.0,0.865,7.584999999999999,24.299999999999997
2004,9513000000,5999000000,3514000000,0.3694,303000000.0,1715000000,388000000,2406000000,8405000000,0.0,0.0,388000000.0,1393000000,0.1464,1108000000,0.1165,-45000000,1063000000,0.1117,322000000,683000000,0.0718,1.99,1.98,343216080,345822785,709000000.0,0.0,709000000.0,1797000000.0,1076000000.0,472000000.0,4054000000.0,2471000000.0,0.0,1713000000.0,1713000000.0,0.0,0.0,694000000.0,4878000000.0,0.0,8932000000.0,1651000000.0,166000000.0,0.0,0.0,404000000.0,2221000000.0,1184000000.0,0.0,145000000.0,1714000000.0,3043000000.0,0.0,0.0,5264000000.0,0.0,484000000.0,6776000000.0,-5384000000.0,1696000000.0,3572000000.0,8836000000.0,96000000.0,8932000000.0,683000000.0,388000000.0,0.0,0.0,435000000.0,0.0,-45000000.0,0.0,1833000000.0,-488000000.0,1018000000.0,-244000000.0,-67000000.0,0.0,0.0,51000000.0,-260000000.0,0.0,121000000.0,-100000000.0,-307000000.0,-299000000.0,-585000000.0,37000000.0,210000000.0,709000000.0,499000000.0,774000000.0,29.84,29.895,19.85,25013000.0,0.895,8.479999999999999,28.33
2005,10201000000,6473000000,3728000000,0.3655,309000000.0,1771000000,372000000,2452000000,8925000000,0.0,0.0,372000000.0,1250000000,0.1225,1276000000,0.1251,-329000000,947000000,0.0928,282000000,596000000,0.0584,1.75,1.75,339601140,341547278,466000000.0,0.0,466000000.0,1871000000.0,1119000000.0,563000000.0,4019000000.0,2304000000.0,0.0,1654000000.0,1654000000.0,311000000.0,0.0,393000000.0,4662000000.0,0.0,8681000000.0,1776000000.0,101000000.0,0.0,0.0,472000000.0,2349000000.0,1169000000.0,0.0,90000000.0,1912000000.0,3171000000.0,0.0,0.0,5520000000.0,0.0,484000000.0,7057000000.0,-819000000.0,-3669000000.0,3053000000.0,8573000000.0,108000000.0,8681000000.0,596000000.0,372000000.0,0.0,0.0,-163000000.0,0.0,-59000000.0,0.0,1670000000.0,260000000.0,1065000000.0,-288000000.0,-91000000.0,-1990000000.0,2040000000.0,-36000000.0,-365000000.0,0.0,148000000.0,-607000000.0,-316000000.0,-82000000.0,-857000000.0,-36000000.0,-193000000.0,466000000.0,659000000.0,777000000.0,32.635000000000005,32.0,21.925,32620100.0,0.93,9.409999999999998,31.335
2006,11037000000,7036000000,4001000000,0.3625,318000000.0,1980000000,380000000,2678000000,9714000000,0.0,0.0,380000000.0,1369000000,0.124,1323000000,0.1199,-263000000,1060000000,0.096,278000000,711000000,0.0644,2.15,2.13,331468531,333021077,455000000.0,0.0,455000000.0,2168000000.0,1390000000.0,579000000.0,4592000000.0,2496000000.0,1396000000.0,586000000.0,1982000000.0,343000000.0,0.0,608000000.0,5429000000.0,0.0,10021000000.0,1081000000.0,140000000.0,0.0,0.0,1566000000.0,2787000000.0,1155000000.0,0.0,136000000.0,2561000000.0,3852000000.0,0.0,0.0,6639000000.0,0.0,484000000.0,7453000000.0,-939000000.0,-3764000000.0,3234000000.0,9873000000.0,148000000.0,10021000000.0,711000000.0,380000000.0,0.0,0.0,135000000.0,0.0,-78000000.0,0.0,1805000000.0,-96000000.0,1130000000.0,-372000000.0,-402000000.0,-963000000.0,963000000.0,112000000.0,-662000000.0,0.0,67000000.0,-153000000.0,-316000000.0,-99000000.0,-501000000.0,22000000.0,-11000000.0,455000000.0,466000000.0,758000000.0,31.93,32.125,22.73,37581600.0,0.955,10.364999999999998,33.095
2007,11206000000,7087000000,4119000000,0.3676,339000000.0,2136000000,380000000,2855000000,9942000000,0.0,0.0,380000000.0,1569000000,0.14,1264000000,0.1128,-21000000,1243000000,0.1109,355000000,834000000,0.0744,2.54,2.52,328994083,331610338,526000000.0,1706000000.0,2232000000.0,2398000000.0,1368000000.0,1138000000.0,7136000000.0,2426000000.0,1476000000.0,612000000.0,2088000000.0,370000000.0,0.0,609000000.0,5493000000.0,0.0,12629000000.0,2150000000.0,1819000000.0,0.0,0.0,692000000.0,4661000000.0,1201000000.0,0.0,164000000.0,2319000000.0,3684000000.0,0.0,0.0,8345000000.0,0.0,484000000.0,7963000000.0,-582000000.0,-3714000000.0,4151000000.0,12496000000.0,133000000.0,12629000000.0,834000000.0,380000000.0,0.0,0.0,670000000.0,0.0,-55000000.0,0.0,2475000000.0,-888000000.0,996000000.0,-353000000.0,-231000000.0,0.0,0.0,-1623000000.0,-2207000000.0,0.0,194000000.0,-274000000.0,-335000000.0,1698000000.0,1283000000.0,11000000.0,83000000.0,526000000.0,443000000.0,643000000.0,36.82,36.73,26.615,39308700.0,1.02,11.384999999999998,38.0
2008,15849000000,10155000000,5694000000,0.3593,451000000.0,3432000000,567000000,4450000000,14605000000,26000000.0,254000000.0,563000000.0,1639000000,0.1034,1244000000,0.0785,-336000000,908000000,0.0573,284000000,538000000,0.0339,1.64,1.63,329200000,331076923,1021000000.0,0.0,1021000000.0,2804000000.0,1702000000.0,821000000.0,6348000000.0,2798000000.0,2641000000.0,1472000000.0,4113000000.0,509000000.0,0.0,930000000.0,8350000000.0,0.0,14698000000.0,1402000000.0,903000000.0,0.0,0.0,1905000000.0,4210000000.0,3009000000.0,0.0,425000000.0,3721000000.0,7155000000.0,0.0,0.0,11365000000.0,0.0,484000000.0,8156000000.0,-1628000000.0,-3679000000.0,3333000000.0,14698000000.0,0.0,14698000000.0,538000000.0,563000000.0,0.0,0.0,-337000000.0,0.0,79000000.0,0.0,2138000000.0,594000000.0,1358000000.0,-383000000.0,-1448000000.0,0.0,0.0,1956000000.0,125000000.0,-3691000000.0,13000000.0,-7000000.0,-343000000.0,3050000000.0,-978000000.0,-10000000.0,495000000.0,1021000000.0,526000000.0,975000000.0,30.5,30.285,22.595,66710100.0,1.045,12.429999999999998,35.025
2009,12239000000,7539000000,4700000000,0.384,388000000.0,2936000000,493000000,3817000000,11356000000,28000000.0,193000000.0,480000000.0,1200000000,0.098,883000000,0.0721,-266000000,617000000,0.0504,191000000,336000000,0.0275,1.02,1.01,329600000,331000000,1057000000.0,0.0,1057000000.0,2628000000.0,1548000000.0,748000000.0,5981000000.0,2754000000.0,2784000000.0,1416000000.0,4200000000.0,499000000.0,0.0,806000000.0,8259000000.0,0.0,14240000000.0,1384000000.0,272000000.0,0.0,0.0,1921000000.0,3577000000.0,3074000000.0,0.0,328000000.0,3339000000.0,6741000000.0,0.0,0.0,10318000000.0,0.0,484000000.0,8139000000.0,-1261000000.0,-3609000000.0,3753000000.0,14071000000.0,169000000.0,14240000000.0,336000000.0,480000000.0,0.0,0.0,266000000.0,0.0,232000000.0,-152000000.0,2404000000.0,263000000.0,1345000000.0,-239000000.0,-26000000.0,0.0,0.0,62000000.0,-203000000.0,-1076000000.0,12000000.0,-59000000.0,-430000000.0,430000000.0,-1123000000.0,17000000.0,36000000.0,1057000000.0,1021000000.0,1106000000.0,22.285,24.87,19.42,73079800.0,1.065,13.494999999999997,32.915
2010,13423000000,8214000000,5209000000,0.3881,394000000.0,2979000000,482000000,3855000000,12069000000,34000000.0,189000000.0,470000000.0,1843000000,0.1373,1354000000,0.1009,-59000000,1295000000,0.0965,415000000,769000000,0.0573,2.33,2.31,329000000,331800000,1341000000.0,637000000.0,1978000000.0,2778000000.0,1573000000.0,729000000.0,7058000000.0,2686000000.0,2719000000.0,1268000000.0,3987000000.0,550000000.0,0.0,694000000.0,7917000000.0,0.0,14975000000.0,1626000000.0,28000000.0,0.0,0.0,1971000000.0,3625000000.0,4043000000.0,0.0,293000000.0,3181000000.0,7517000000.0,0.0,0.0,11142000000.0,0.0,484000000.0,8548000000.0,-1411000000.0,-3983000000.0,3638000000.0,14780000000.0,195000000.0,14975000000.0,769000000.0,470000000.0,0.0,0.0,1029000000.0,0.0,-34000000.0,0.0,3433000000.0,-958000000.0,1310000000.0,-307000000.0,-34000000.0,-624000000.0,0.0,16000000.0,-949000000.0,-262000000.0,146000000.0,-586000000.0,-447000000.0,1045000000.0,-104000000.0,27000000.0,284000000.0,1341000000.0,1057000000.0,1003000000.0,33.205,33.83,27.51,52185200.0,1.09,14.584999999999997,42.095
2011,14885000000,9081000000,5804000000,0.3899,430000000.0,3234000000,467000000,4131000000,13212000000,42000000.0,210000000.0,467000000.0,2157000000,0.1449,1673000000,0.1124,-76000000,1597000000,0.1073,385000000,1095000000,0.0736,3.48,3.44,314600000,318600000,1457000000.0,25000000.0,1482000000.0,2830000000.0,1607000000.0,775000000.0,6694000000.0,2721000000.0,2660000000.0,1125000000.0,3785000000.0,387000000.0,0.0,795000000.0,7688000000.0,0.0,14382000000.0,1612000000.0,108000000.0,0.0,0.0,1982000000.0,3702000000.0,3574000000.0,0.0,272000000.0,3388000000.0,7234000000.0,0.0,0.0,10936000000.0,0.0,484000000.0,9288000000.0,-1800000000.0,-4723000000.0,3249000000.0,14185000000.0,197000000.0,14382000000.0,1095000000.0,467000000.0,0.0,0.0,-441000000.0,0.0,-73000000.0,0.0,2992000000.0,315000000.0,1436000000.0,-390000000.0,-56000000.0,-125000000.0,749000000.0,175000000.0,353000000.0,-398000000.0,81000000.0,-858000000.0,-355000000.0,-102000000.0,-1632000000.0,-41000000.0,116000000.0,1457000000.0,1341000000.0,1046000000.0,43.155,43.545,36.42,51962400.0,1.13,15.714999999999996,52.135
2012,15200000000,9069000000,6131000000,0.4034,455000000.0,3335000000,414000000,4204000000,13273000000,39000000.0,210000000.0,465000000.0,1954000000,0.1286,1927000000,0.1268,-525000000,1402000000,0.0922,338000000,941000000,0.0619,3.06,3.03,306800000,310200000,1306000000.0,1087000000.0,2393000000.0,2813000000.0,1687000000.0,822000000.0,7715000000.0,2888000000.0,2761000000.0,1085000000.0,3846000000.0,422000000.0,0.0,1007000000.0,8163000000.0,0.0,15878000000.0,1832000000.0,642000000.0,0.0,0.0,1987000000.0,4461000000.0,3368000000.0,0.0,231000000.0,3496000000.0,7095000000.0,0.0,0.0,11556000000.0,0.0,484000000.0,9871000000.0,-1666000000.0,-4626000000.0,4063000000.0,15619000000.0,259000000.0,15878000000.0,941000000.0,465000000.0,0.0,0.0,262000000.0,90000000.0,29000000.0,0.0,3254000000.0,119000000.0,1787000000.0,-411000000.0,-122000000.0,-1355000000.0,251000000.0,26000000.0,-1611000000.0,-203000000.0,122000000.0,-92000000.0,-358000000.0,180000000.0,-351000000.0,24000000.0,-151000000.0,1306000000.0,1457000000.0,1376000000.0,52.84,53.895,46.215,38582200.0,1.17,16.884999999999998,63.1
2013,15108000000,8636000000,6472000000,0.4284,488000000.0,3699000000,427000000,4614000000,13250000000,43000000.0,196000000.0,475000000.0,4235000000,0.2803,1858000000,0.123,-369000000,1489000000,0.0986,333000000,3231000000,0.2139,11.27,11.13,286800000,290200000,1116000000.0,629000000.0,1745000000.0,2736000000.0,1824000000.0,909000000.0,7214000000.0,2876000000.0,3008000000.0,1339000000.0,4347000000.0,393000000.0,491000000.0,542000000.0,8649000000.0,0.0,15863000000.0,2015000000.0,34000000.0,0.0,0.0,2086000000.0,4135000000.0,3372000000.0,0.0,249000000.0,2909000000.0,6530000000.0,0.0,0.0,10665000000.0,0.0,484000000.0,12757000000.0,-1260000000.0,-7049000000.0,4932000000.0,15597000000.0,266000000.0,15863000000.0,3231000000.0,475000000.0,-36000000.0,81000000.0,-175000000.0,44000000.0,43000000.0,0.0,3079000000.0,-1785000000.0,1791000000.0,-515000000.0,-43000000.0,-1269000000.0,1833000000.0,-518000000.0,3000000.0,-605000000.0,68000000.0,-1000000000.0,-345000000.0,-97000000.0,-1979000000.0,-5000000.0,-190000000.0,1116000000.0,1306000000.0,1276000000.0,75.38499999999999,77.46000000000001,67.515,31659200.0,1.21,18.095,85.61
2014,15360000000,8791000000,6569000000,0.4277,492000000.0,3758000000,426000000,4676000000,13467000000,50000000.0,187000000.0,476000000.0,3024000000,0.1969,1893000000,0.1232,-477000000,1416000000,0.0922,259000000,2102000000,0.1368,7.6,7.51,276600000,279600000,686000000.0,497000000.0,1183000000.0,2815000000.0,1825000000.0,1027000000.0,6850000000.0,3092000000.0,3801000000.0,2411000000.0,6212000000.0,443000000.0,505000000.0,481000000.0,10733000000.0,0.0,17583000000.0,2183000000.0,481000000.0,0.0,0.0,2212000000.0,4876000000.0,3544000000.0,0.0,702000000.0,3196000000.0,7442000000.0,0.0,0.0,12318000000.0,0.0,484000000.0,14498000000.0,-2116000000.0,-7686000000.0,5180000000.0,17498000000.0,85000000.0,17583000000.0,2102000000.0,476000000.0,-89000000.0,73000000.0,-1105000000.0,-119000000.0,-95000000.0,0.0,1974000000.0,71000000.0,1528000000.0,-587000000.0,-488000000.0,-1249000000.0,1384000000.0,-504000000.0,-857000000.0,-1803000000.0,57000000.0,-750000000.0,-361000000.0,1888000000.0,-969000000.0,-132000000.0,-430000000.0,686000000.0,1116000000.0,941000000.0,98.37,99.995,88.38999999999999,32574400.0,1.31,19.404999999999998,107.79499999999999
2015,15330000000,8591000000,6739000000,0.4396,486000000.0,3679000000,456000000,4621000000,13212000000,40000000.0,126000000.0,495000000.0,2483000000,0.162,2118000000,0.1382,-236000000,1882000000,0.1228,456000000,1406000000,0.0917,5.18,5.14,271400000,273600000,1311000000.0,144000000.0,1455000000.0,2788000000.0,1705000000.0,606000000.0,6554000000.0,3017000000.0,3669000000.0,2178000000.0,5847000000.0,367000000.0,672000000.0,619000000.0,10522000000.0,0.0,17076000000.0,2174000000.0,283000000.0,0.0,0.0,2199000000.0,4656000000.0,4042000000.0,0.0,460000000.0,2849000000.0,7351000000.0,0.0,0.0,12007000000.0,0.0,969000000.0,15521000000.0,-2702000000.0,-8805000000.0,4983000000.0,16990000000.0,86000000.0,17076000000.0,1406000000.0,495000000.0,0.0,56000000.0,-76000000.0,-149000000.0,46000000.0,0.0,1898000000.0,-44000000.0,1837000000.0,-476000000.0,-273000000.0,-131000000.0,458000000.0,-449000000.0,-395000000.0,-340000000.0,53000000.0,-751000000.0,-383000000.0,667000000.0,-754000000.0,-63000000.0,625000000.0,1311000000.0,686000000.0,1361000000.0,110.745,109.58,98.115,31352900.0,1.415,20.819999999999997,118.93499999999999
2016,14751000000,8063000000,6688000000,0.4534,466000000.0,4630000000,-521000000,4575000000,12638000000,26000000.0,125000000.0,462000000.0,1705000000,0.1156,2113000000,0.1432,-1286000000,827000000,0.0561,241000000,877000000,0.0595,3.3,3.28,265600000,267400000,1820000000.0,43000000.0,1863000000.0,2692000000.0,1546000000.0,351000000.0,6452000000.0,2759000000.0,3572000000.0,1983000000.0,5555000000.0,179000000.0,154000000.0,670000000.0,9317000000.0,0.0,15769000000.0,2175000000.0,629000000.0,0.0,0.0,1436000000.0,4240000000.0,3787000000.0,0.0,417000000.0,2412000000.0,6616000000.0,0.0,0.0,10856000000.0,0.0,969000000.0,15984000000.0,-2356000000.0,-9771000000.0,4826000000.0,15682000000.0,87000000.0,15769000000.0,877000000.0,462000000.0,155000000.0,39000000.0,314000000.0,-59000000.0,61000000.0,0.0,2212000000.0,-522000000.0,1325000000.0,-402000000.0,745000000.0,-36000000.0,116000000.0,-389000000.0,436000000.0,-379000000.0,31000000.0,-1050000000.0,-414000000.0,628000000.0,-1184000000.0,-68000000.0,509000000.0,1820000000.0,1311000000.0,923000000.0,103.685,103.755,94.585,32096750.0,1.56,22.379999999999995,116.96499999999999
2017,14750000000,8204000000,6546000000,0.4438,453000000.0,3630000000,389000000,4472000000,12676000000,20000000.0,105000000.0,460000000.0,2772000000,0.1879,2074000000,0.1406,-66000000,2008000000,0.1361,616000000,1591000000,0.1079,6.36,6.31,256100000,257800000,1436000000.0,55000000.0,1491000000.0,2903000000.0,1730000000.0,353000000.0,6477000000.0,2824000000.0,3942000000.0,2045000000.0,5987000000.0,268000000.0,305000000.0,677000000.0,10061000000.0,0.0,16538000000.0,2581000000.0,12000000.0,0.0,0.0,1301000000.0,3894000000.0,4134000000.0,0.0,442000000.0,2395000000.0,6971000000.0,0.0,0.0,10865000000.0,0.0,969000000.0,17141000000.0,-2057000000.0,-10495000000.0,5558000000.0,16423000000.0,115000000.0,16538000000.0,1591000000.0,460000000.0,36000000.0,42000000.0,371000000.0,-76000000.0,-116000000.0,0.0,2583000000.0,-932000000.0,1568000000.0,-360000000.0,268000000.0,-35000000.0,37000000.0,-337000000.0,-67000000.0,-588000000.0,52000000.0,-813000000.0,-434000000.0,-171000000.0,-1954000000.0,69000000.0,-384000000.0,1436000000.0,1820000000.0,1208000000.0,105.995,107.51,99.405,27380850.0,1.7000000000000002,24.079999999999995,123.485
2018,15374000000,9001000000,6373000000,0.4145,441000000.0,3573000000,487000000,4501000000,13502000000,23000000.0,118000000.0,497000000.0,2309000000,0.1502,1872000000,0.1218,-179000000,1693000000,0.1101,353000000,1341000000,0.0872,5.5,5.47,243900000,245400000,902000000.0,61000000.0,963000000.0,2845000000.0,1783000000.0,370000000.0,5961000000.0,2805000000.0,4070000000.0,1972000000.0,6042000000.0,251000000.0,229000000.0,727000000.0,10054000000.0,0.0,16015000000.0,2460000000.0,651000000.0,0.0,0.0,1262000000.0,4373000000.0,4365000000.0,0.0,429000000.0,2116000000.0,6910000000.0,0.0,0.0,11283000000.0,0.0,969000000.0,18131000000.0,-2300000000.0,-12170000000.0,4630000000.0,15913000000.0,102000000.0,16015000000.0,1341000000.0,497000000.0,45000000.0,37000000.0,-995000000.0,-69000000.0,-109000000.0,0.0,1588000000.0,542000000.0,1467000000.0,-411000000.0,-378000000.0,-28000000.0,23000000.0,-381000000.0,-764000000.0,-6000000.0,15000000.0,-1721000000.0,-453000000.0,960000000.0,-1205000000.0,-32000000.0,-534000000.0,902000000.0,1436000000.0,1056000000.0,110.315,109.23,103.065,33525550.0,1.86,25.939999999999994,129.005
2019,15146000000,8653000000,6493000000,0.4287,432000000.0,3604000000,503000000,4539000000,13192000000,32000000.0,132000000.0,511000000.0,2278000000,0.1504,1954000000,0.129,-293000000,1661000000,0.1097,392000000,1243000000,0.0821,5.25,5.22,236900000,238200000,1216000000.0,57000000.0,1273000000.0,2756000000.0,1710000000.0,431000000.0,6170000000.0,3765000000.0,4470000000.0,2131000000.0,6601000000.0,258000000.0,220000000.0,694000000.0,11538000000.0,0.0,17708000000.0,2378000000.0,513000000.0,0.0,0.0,1484000000.0,4375000000.0,4539000000.0,0.0,452000000.0,2939000000.0,7930000000.0,0.0,792000000.0,12305000000.0,0.0,969000000.0,18906000000.0,-2350000000.0,-12241000000.0,5284000000.0,17589000000.0,119000000.0,17708000000.0,1243000000.0,511000000.0,-5000000.0,39000000.0,207000000.0,0.0,145000000.0,-63000000.0,1795000000.0,85000000.0,2080000000.0,-413000000.0,-643000000.0,-8000000.0,28000000.0,-386000000.0,-1009000000.0,-660000000.0,61000000.0,-325000000.0,-468000000.0,634000000.0,-758000000.0,1000000.0,314000000.0,1216000000.0,902000000.0,1667000000.0,115.505,117.05,111.705,25879600.0,1.98,27.919999999999995,139.625
2020,13834000000,7777000000,6057000000,0.4378,379000000.0,3389000000,502000000,4270000000,12047000000,23000000.0,138000000.0,509000000.0,1997000000,0.1444,1787000000,0.1292,-425000000,1362000000,0.0985,291000000,1059000000,0.0766,4.47,4.45,236800000,237900000,1826000000.0,96000000.0,1922000000.0,2726000000.0,1735000000.0,415000000.0,6798000000.0,3974000000.0,5102000000.0,2351000000.0,7453000000.0,267000000.0,379000000.0,685000000.0,12758000000.0,0.0,19556000000.0,2579000000.0,758000000.0,46000000.0,0.0,1494000000.0,4831000000.0,5848000000.0,0.0,435000000.0,2627000000.0,8910000000.0,0.0,857000000.0,13741000000.0,0.0,969000000.0,19469000000.0,-2599000000.0,-12150000000.0,5689000000.0,19430000000.0,126000000.0,19556000000.0,1059000000.0,509000000.0,-47000000.0,44000000.0,172000000.0,0.0,111000000.0,127000000.0,1967000000.0,393000000.0,2130000000.0,-304000000.0,-1169000000.0,-5000000.0,22000000.0,-295000000.0,-1447000000.0,-2423000000.0,54000000.0,0.0,-496000000.0,2806000000.0,-59000000.0,6000000.0,610000000.0,1826000000.0,1216000000.0,1826000000.0,113.89,113.745,110.155,35203450.0,2.1,30.019999999999996,140.175
2021,16802000000,10286000000,6516000000,0.3878,439000000.0,3830000000,553000000,4822000000,15108000000,26000000.0,121000000.0,561000000.0,2495000000,0.1485,2171000000,0.1292,-356000000,1815000000,0.108,374000000,1439000000,0.0856,6.08,6.08,237400000,239200000,1005000000.0,67000000.0,1072000000.0,3152000000.0,2171000000.0,379000000.0,6774000000.0,4333000000.0,6248000000.0,2783000000.0,9031000000.0,274000000.0,197000000.0,742000000.0,14577000000.0,0.0,21351000000.0,3102000000.0,201000000.0,36000000.0,0.0,1463000000.0,4766000000.0,7265000000.0,0.0,646000000.0,2263000000.0,10174000000.0,0.0,885000000.0,14940000000.0,0.0,969000000.0,20372000000.0,-2750000000.0,-12305000000.0,6286000000.0,21226000000.0,125000000.0,21351000000.0,1439000000.0,561000000.0,35000000.0,57000000.0,-188000000.0,0.0,-279000000.0,295000000.0,-109000000.0,-342000000.0,1562000000.0,-371000000.0,-2137000000.0,371000000.0,0.0,-267000000.0,-2404000000.0,-1457000000.0,47000000.0,-210000000.0,-536000000.0,2249000000.0,93000000.0,-72000000.0,-821000000.0,1005000000.0,1826000000.0,1191000000.0,157.94,160.06,158.575,26413100.0,2.26,32.279999999999994,190.855
