,Revenue,COGS,Gross Profit,Gross Profit Ratio,Research and Development Exp.,"Selling, General and Administrative Exp.",Other Expenses,Operating Expenses,COGS and Expenses,Interest Income,Interest Expense (Gain),Depreciation and Amortization,EBITDA,EBITDA Ratio,Operating Income,Operating Income Ratio,Total Other Income Expenses (Gains),Income Before Tax,Income Before Tax Ratio,Income Tax expense (Gain),Net Income,Net Income Ratio,EPS,EPS Diluted,Weighted Average Shares Outstanding,Weighted Average Shares Outstanding Diluted,Cash and Cash Equivalents,Short-Term Investments,Cash and Short-Term Investments,Net Receivables,Inventory (Balance),Other Current Assets,Total Current Assets,PP&E,Goodwill,Intangible Assets,Goodwill and Intangible Assets,Investments,Tax Assets,Other Non-Current Assets,Total Non-Current Assets,Other Assets,Total Assets,Accounts Payable (Balance),Short-Term Debt,Tax Payable,Deferred Revenue (Current),Other Current Liabilities,Total Current Liabilities,Long-Term Debt,Deferred Revenue (Non-Current),Deferred Tax Liabilities,Other Non-Current Liabilities,Total Non-Current Liabilities,Other Liabilities,Capital Lease Obligations,Total Liabilities,Preferred Stock,Common Stock,Retained Earnings,Other Comprehensive Income/Loss,Other Total Stockholders Equity,Total Stockholders Equity,Total Liabilities And Stockholders Equity,Minority Interest,Total Liabilities & Equity,Net Income (Cash Flow),Depreciation and Amortization (Cash Flow),Deferred Income Tax,Stock Based Compensation,Change in Working Capital,Accounts Receivable,Inventory (Cash Flow),Accounts Payable (Cash Flow),Other Working Capital,Other Non-Cash Items,Cash Provided by Operating Activities,CAPEX,Acquisitions Net,Purchases of Investments,Sales/Maturities of Investments,Other Investing Activities,Cash Used for Investing Activites,Debt Repayment,Common Stock Issued,Common Stock Repurchased,Dividends Paid,Other Financing Activites,Cash Used/Provided by Financing Activities,Effect of Forex Changes on Cash,Net Change In Cash,Cash at the End of Period,Cash at the Beginning of Period,Free Cash Flow,Open,Close,Adj Close,Volume,Dividend,Dividend Cum,Price with cum Dividends,Tax Rate,Deferred Revenue,Net Interest Income,Free Cash Flow to the Firm,Tangible Assets,Adjusted Operating Income,EBIT,Operating Cash Flow,Common Book Value,Tangible Book Value,Common Tangible Book Value,Free Cash Flow Ratio,"Selling, General and Administrative Exp. Ratio",Research and Development Exp. Ratio,Other Expenses Ratio,Net Interest IncomeRatio,Depreciation and Amortization Ratio,EBIT Margin,Adjusted Operating Margin,Operating Cash Flow Margin,Cost-to-Income Ratio,Operating Expense Ratio,Revenue per share,Operating Income per share,FCF per share,CAPEX per share,Book value per share,Dividends per share,Total Debt,Financial leverage,Cash to Debt Ratio,Cash & Investments,Cash & Investments to Debt Ratio,Net Debt,Net Debt w/Investments,Working Capital,Current Ratio,Quick Ratio,Cash to Current Assets,Cash to Assets,Debt to Equity,Debt to Assets,Interest Coverage,Current Liability Coverage Ratio,Cash Ratio,Net Working Capital to Assets,Long Term Debt Ratio,Total Debt/ Assets,Net Debt/ Assets,Total Debt/ Equity,Total Liabilities/ Equity,Net Debt/ Equity,Equity Ratio,Equity Multiplier,Debt/ Tangible Book Value,Net Debt/ EBITDA,Cash to Debt,Cash Flow Coverage Ratio,Free Cash Flow/ Long Term Debt,Debt Leverage Ratio,Interest Expense to Debt Ratio,Cash Sales,Cash Revenue Adjustment,CFO/ Net Income,Return on Equity,NOPAT,Invested Capital,Return on Invested Capital,Capital Employed,ROCE,CFROI,Asset Turnover Ratio,Inventory Turnover,Receivables Turnover,Cash Turnover Ratio,Gross Profitability Ratio,Tangible Gross Profitability Ratio,Cash Return on Invested Capital,Adjusted Return on Capital Employed,Cash Return on Capital Employed,EBIT Return on Assets,EBIT Return on Tangible Assets,Return on Assets,Return on Tangible Equity,Cash Return on Equity,Return on Retained Earnings,R&D / Assets,R&D / Book,CapEx / Assets,CapEx / Fixed Assets,Retained Earnings / Total Assets,Inventory / Assets,Accounts Receivable / Assets,Plowback Ratio,Dividend & Repurchase / FCF,Dividend & Repurchase / EBITDA
1994,620200000,144300000.0,475900000,0.7673,0.0,51400000,270500000.0,321900000,466200000,0.0,0.0,242200000.0,396100000.0,0.6387,154000000,0.2483,-100000,153900000,0.2481,5900000,148000000,0.2386,0.23,0.23,639380000,639380000,5800000.0,0.0,5800000.0,126200000.0,15700000.0,8700000.0,156400000.0,1684800000.0,0.0,0.0,0.0,0.0,0.0,20700000.0,1705500000.0,0.0,1861900000.0,131200000.0,1700000.0,0.0,0.0,31700000.0,164600000.0,190300000.0,0.0,269300000.0,194300000.0,653900000.0,0.0,0.0,818500000.0,0.0,0.0,453800000.0,-1330600000.0,1920200000.0,1043400000.0,1861900000.0,0.0,1861900000.0,148000000,242200000.0,1800000,0.0,,0.0,-2200000.0,0.0,-8200000.0,33900000,425900000,-442100000,0.0,0.0,0.0,-52700000,-494800000,0.0,4100000.0,-14100000.0,-19200000.0,800000,-28400000,0.0,,,103100000,-16200000,5.359999999999999,5.359999999999999,4.095000000000001,9857600.0,0.03,0.03,4.125000000000001,0.03833658219623132,0.0,0.0,-16200000.0,1861900000.0,182300000.0,153900000.0,,1043400000.0,1043400000.0,1043400000.0,-0.026120606256046435,0.10800588358898928,0.0,0.4361496291518865,0.0,0.3905191873589165,0.24814575943244116,0.29393743953563367,,2.0902597402597403,0.5190261206062561,0.9700021896211956,0.240858331508649,-0.025337045262598144,-0.6914510932465826,1.6318933967280804,-0.030029090681597797,192000000.0,0.18401380103507764,0.030208333333333334,5800000.0,0.030208333333333334,186200000.0,186200000.0,-8200000.0,0.9501822600243013,0.03523693803159174,0.0370843989769821,0.0031150974810677267,0.1577534981790301,0.08840431816961168,99.0,,0.03523693803159174,-0.004404103335302648,0.3512003867017563,0.10312046833879371,0.10000537085772598,0.18401380103507764,0.7844546674333909,0.17845505079547633,0.5603952951286321,1.7844546674333908,0.7844546674333909,0.47008331229487504,0.030208333333333334,,-0.08512874408828167,2.066397374400404,0.0,620200000.0,,,0.14184397163120568,148096166.34178036,1697300000.0,0.08725397180332314,1697300000.0,0.09067342249455017,,0.3331005961652076,9.19108280254777,inf,106.93103448275862,0.2555991191793329,0.2555991191793329,-0.009544570788900017,0.1074058799269428,-0.009544570788900017,0.08265750040281433,0.08265750040281433,0.07954034391845984,0.14184397163120568,,0.3261348611723226,0.0,0.0,0.23744562006552447,0.26240503323836656,0.2437295236049197,0.008432246629786777,0.0,1.1297297297297297,0.5679012345679012,-0.023226457965160312
1995,648700000,148100000.0,500600000,0.7717,0.0,56600000,248600000.0,305200000,453300000,0.0,0.0,216000000.0,400000000.0,0.6166,195400000,0.3012,-11400000,184000000,0.2836,41900000,142100000,0.2191,0.22,0.22,639668000,641739130,23000000.0,0.0,23000000.0,168500000.0,11700000.0,14600000.0,217800000.0,1881400000.0,0.0,0.0,0.0,0.0,0.0,48100000.0,1929500000.0,0.0,2147300000.0,133700000.0,0.0,0.0,0.0,35600000.0,169300000.0,289100000.0,0.0,308100000.0,217100000.0,814300000.0,0.0,0.0,983600000.0,0.0,0.0,576700000.0,-1499400000.0,2086400000.0,1163700000.0,2147300000.0,0.0,2147300000.0,142100000,216000000.0,45200000,0.0,56700000.0,0.0,4000000.0,0.0,48500000.0,-124600000,335400000,-445000000,0.0,0.0,0.0,53700000,-391300000,0.0,10300000.0,-17900000.0,-19200000.0,100000000,73200000,0.0,,,5800000,-109600000,5.395,5.44,4.225,8736200.0,0.12,0.15,4.375,0.22771739130434782,0.0,0.0,-109600000.0,2147300000.0,228000000.0,184000000.0,426200000.0,1163700000.0,1163700000.0,1163700000.0,-0.1689532911977802,0.11306432281262485,0.0,0.3832279944504393,0.0,0.33297363958686604,0.2836442114999229,0.3514721751194697,0.6570063203329737,1.5619242579324462,0.47047942037921997,1.014119824659042,0.3054709630620885,-0.17133888204506087,-0.6956733805661687,1.8192249729547203,-0.03001557057723694,289100000.0,0.24843172638996305,0.07955724662746455,23000000.0,0.07955724662746455,266100000.0,266100000.0,48500000.0,1.286473715298287,0.13585351447135263,0.10560146923783287,0.010711125599590183,0.14548423133109908,0.07884319843524426,99.0,2.630832841110455,0.13585351447135263,0.022586503981744516,0.37922041633679504,0.13463419177571834,0.12392306617612817,0.24843172638996305,0.8452350262095042,0.22866718226346996,0.5419363852279607,1.845235026209504,0.8452350262095042,0.66525,0.07955724662746455,0.4333062220414803,-0.3791075752334832,2.459,0.0,648700000.0,,2.999296270232231,0.12211050958150726,150904021.73913044,1978000000.0,0.07629121422605178,1978000000.0,0.09302325581395349,0.21547017189079878,0.30210031201974574,12.658119658119658,inf,28.204347826086956,0.23312997718064546,0.23312997718064546,-0.05540950455005056,0.11526794742163801,-0.05540950455005056,0.08568900479672147,0.08568900479672147,0.07027617088396146,0.12211050958150726,0.3662455959439718,0.24640194208427257,0.0,0.0,0.20723699529641876,0.23652599128308707,0.2685698318818982,0.005448703022400223,0.0,1.135116115411682,0.10583941605839416,-0.029
1996,730600000,166000000.0,564600000,0.7728,0.0,56400000,299400000.0,355800000,521800000,0.0,0.0,251300000.0,442300000.0,0.6054,208800000,0.2858,-17800000,191000000,0.2614,51000000,140000000,0.1916,0.22,0.22,639412000,655625000,7600000.0,0.0,7600000.0,277300000.0,20700000.0,20300000.0,325900000.0,2099600000.0,0.0,0.0,0.0,0.0,0.0,32900000.0,2132500000.0,0.0,2458400000.0,277600000.0,0.0,0.0,0.0,39800000.0,317400000.0,466100000.0,0.0,308900000.0,100900000.0,875900000.0,0.0,0.0,1193300000.0,0.0,0.0,697600000.0,-1653600000.0,2221100000.0,1265100000.0,2458400000.0,0.0,2458400000.0,140000000,251300000.0,2300000,0.0,-40000000.0,0.0,-9000000.0,0.0,8500000.0,11500000,365100000,-539300000,0.0,0.0,0.0,27700000,-511600000,0.0,22200000.0,-43500000.0,-19200000.0,171600000,131100000,0.0,,,23000000,-174200000,6.375,6.375,5.025,25519200.0,0.03,0.18,5.205,0.2670157068062827,0.0,0.0,-174200000.0,2458400000.0,256900000.0,191000000.0,369100000.0,1265100000.0,1265100000.0,1265100000.0,-0.23843416370106763,0.09989373007438895,0.0,0.4098001642485628,0.0,0.3439638653161785,0.26142896249657815,0.35162879824801535,0.5052012044894607,1.7040229885057472,0.4869969887763482,1.1426122750276817,0.32655001782888027,-0.27243780223079955,-0.8434311523712411,1.9785365304373392,-0.03002758784633382,466100000.0,0.36842937317208124,0.01630551383823214,7600000.0,0.01630551383823214,458500000.0,458500000.0,8500000.0,1.0267800882167613,0.023944549464398234,0.02332003682111077,0.0030914415880247317,0.2508892577661845,0.12910836316303287,99.0,1.2233774417139256,0.023944549464398234,0.00345753335502766,0.3562886430198503,0.18959485844451676,0.18650341685649202,0.36842937317208124,0.9432455932337365,0.3624219429294127,0.5146029938171168,1.9432455932337365,0.9432455932337365,1.0366267239430251,0.01630551383823214,0.3093103159306126,-0.3737395408710577,2.6979425729143114,0.0,730600000.0,,2.6364285714285716,0.1106631886807367,153047120.41884816,2141000000.0,0.07148394227877074,2141000000.0,0.08921064922933208,0.17239607659971976,0.29718516108037746,8.019323671497585,inf,96.13157894736842,0.2296615684998373,0.2296615684998373,-0.08136384866884633,0.11999065857076133,-0.08136384866884633,0.07769280833062155,0.07769280833062155,0.06225476749871793,0.1106631886807367,0.29175559244328514,0.2006880733944954,0.0,0.0,0.21937032216075497,0.25685844922842443,0.2837617962902701,0.00842011064106736,0.0,1.1371428571428572,-0.012055109070034443,0.004747908659281031
1997,783500000,198300000.0,585200000,0.7469,0.0,54400000,338100000.0,392500000,590800000,0.0,0.0,278200000.0,441700000.0,0.5638,192700000,0.2459,-29200000,163500000,0.2087,41500000,122000000,0.1557,0.2,0.19,629504000,632640000,9300000.0,0.0,9300000.0,232100000.0,32000000.0,8600000.0,282000000.0,2387200000.0,0.0,0.0,0.0,0.0,0.0,54200000.0,2441400000.0,0.0,2723400000.0,235700000.0,0.0,0.0,0.0,55300000.0,291000000.0,741300000.0,0.0,287700000.0,122400000.0,1151400000.0,0.0,0.0,1442400000.0,0.0,0.0,800700000.0,-1904200000.0,2384500000.0,1281000000.0,2723400000.0,0.0,2723400000.0,122000000,278200000.0,16700000,0.0,-17500000.0,0.0,-11300000.0,0.0,-9000000.0,131500000,530900000,-626200000,0.0,0.0,0.0,-70900000,-697100000,0.0,5100000.0,-99300000.0,-18900000.0,281000000,167900000,0.0,,,7600000,-95300000,5.235,5.23,4.135,34765400.0,0.03,0.21,4.345,0.25382262996941896,0.0,0.0,-95300000.0,2723400000.0,252600000.0,163500000.0,411900000.0,1281000000.0,1281000000.0,1281000000.0,-0.12163369495851946,0.09295967190704033,0.0,0.4315252074026803,0.0,0.35507338864071475,0.20867900446713467,0.3223994894703255,0.5257179323548181,2.0368448365334717,0.5009572431397575,1.2446306933712892,0.3061140199267995,-0.15138903009353397,-0.9947514233428223,2.034935441236275,-0.030023637657584385,741300000.0,0.578688524590164,0.01254552812626467,9300000.0,0.01254552812626467,732000000.0,732000000.0,-9000000.0,0.9690721649484536,0.031958762886597936,0.03297872340425532,0.0034148490857016964,0.22716627634660422,0.10685172945582727,99.0,1.4804123711340207,0.031958762886597936,-0.003304692663582287,0.4227803480942939,0.27219651905706105,0.2687816699713593,0.578688524590164,1.1259953161592506,0.5714285714285714,0.47036792244987885,2.1259953161592504,1.1259953161592506,1.6572334163459361,0.01254552812626467,0.28556572379367723,-0.12855793875623903,3.2655648630292053,0.0,783500000.0,,3.3762295081967215,0.09523809523809523,143788379.20489296,2432400000.0,0.05911378852363631,2432400000.0,0.06721756290083868,0.1693389245189936,0.28769185576852463,6.196875,inf,84.24731182795699,0.21487846074759492,0.21487846074759492,-0.0391794112810393,0.10384805130735077,-0.0391794112810393,0.06003525005507821,0.06003525005507821,0.052797377985199734,0.09523809523809523,0.3215456674473068,0.15236667915573873,0.0,0.0,0.2299331717705809,0.2623156836461126,0.2940074906367041,0.011750018359403687,0.0,1.1549180327868853,-0.7901364113326338,0.1704776997962418
1998,769200000,219600000.0,549600000,0.7145,0.0,69000000,366900000.0,435900000,655500000,0.0,0.0,315100000.0,375400000.0,0.488,113700000,0.1478,-53400000,60300000,0.0784,4100000,56200000,0.0731,0.09,0.09,617380000,620216000,6300000.0,0.0,6300000.0,193600000.0,39600000.0,6900000.0,246400000.0,2676400000.0,0.0,0.0,0.0,0.0,0.0,95300000.0,2771700000.0,0.0,3018100000.0,206300000.0,0.0,0.0,0.0,56300000.0,262600000.0,1142800000.0,0.0,260300000.0,72100000.0,1475200000.0,0.0,0.0,1737800000.0,0.0,0.0,838400000.0,-2138100000.0,2580000000.0,1280300000.0,3018100000.0,0.0,3018100000.0,56200000,315100000.0,-26800000,0.0,-7200000.0,0.0,-7500000.0,0.0,-16200000.0,66300000,403600000,-690400000,0.0,0.0,0.0,-69200000,-759600000,0.0,2900000.0,-25900000.0,-18500000.0,394500000,353000000,0.0,,,9300000,-286800000,5.03,4.69,3.73,33180800.0,0.0375,0.2475,3.9775,0.06799336650082918,0.0,0.0,-286800000.0,3018100000.0,165500000.0,60300000.0,417500000.0,1280300000.0,1280300000.0,1280300000.0,-0.37285491419656785,0.12554585152838427,0.0,0.47698907956318254,0.0,0.4096463858554342,0.07839313572542901,0.21515860634425377,0.5427717108684348,3.8337730870712403,0.5666926677067082,1.245910136382779,0.18416534387249345,-0.4645437169976352,-1.1182739965661344,2.0737633224270304,-0.02996533739350157,1142800000.0,0.892603296102476,0.005512775638781939,6300000.0,0.005512775638781939,1136500000.0,1136500000.0,-16200000.0,0.9383092155369384,0.02399086062452399,0.02556818181818182,0.002087405983897154,0.20510817777083495,0.0870083827573639,99.0,1.6603198781416604,0.02399086062452399,-0.00536761538716411,0.4887843345150923,0.37864881879328055,0.3765614128093834,0.892603296102476,1.3573381238772162,0.8876825743966258,0.4242072827275438,2.3573381238772164,1.3573381238772162,3.027437400106553,0.005512775638781939,0.24024628841063414,-0.25096254812740637,4.629195524773575,0.0,769200000.0,,7.4288256227758005,0.04389596188393345,105969154.22885571,2755500000.0,0.038457323254892296,2755500000.0,0.021883505715841044,0.15151515151515152,0.25486233060534774,5.545454545454546,inf,122.0952380952381,0.1821013220237898,0.1821013220237898,-0.10408274360370169,0.060061694792233715,-0.10408274360370169,0.019979457274444185,0.019979457274444185,0.035111213753306954,0.04389596188393345,0.32609544637975474,0.0670324427480916,0.0,0.0,0.2287531890924754,0.25795845165147213,0.2777906629999006,0.013120837613067824,0.0,1.3291814946619218,-0.015690376569037656,0.011987213638785296
1999,801400000,187800000.0,613600000,0.7657,0.0,82900000,512600000.0,595500000,783300000,0.0,0.0,459900000.0,1027600000.0,1.2823,18100000,0.0226,549600000,567700000,0.7084,-1400000,569100000,0.7101,1.01,1.0,563476000,569408000,24800000.0,0.0,24800000.0,148200000.0,18800000.0,8700000.0,200500000.0,2334900000.0,0.0,0.0,0.0,0.0,0.0,75400000.0,2410300000.0,0.0,2610800000.0,172800000.0,0.0,0.0,0.0,45800000.0,218600000.0,990300000.0,0.0,226000000.0,46300000.0,1262600000.0,0.0,0.0,1481200000.0,0.0,201200000.0,930900000.0,-2267800000.0,2265300000.0,1129600000.0,2610800000.0,0.0,2610800000.0,569100000,459900000.0,-26300000,0.0,-1900000.0,0.0,5200000.0,0.0,-18100000.0,-558700000,442100000,-402800000,0.0,0.0,0.0,39400000,-363400000,0.0,739800000.0,-2100000.0,-17400000.0,-780500000,-60200000,0.0,18500000.0,24800000.0,6300000,39300000,4.76,4.76,3.82,44494200.0,0.03,0.2774999999999999,4.0975,-0.002466091245376079,0.0,0.0,39300000.0,2610800000.0,70800000.0,567700000.0,477500000.0,1129600000.0,1129600000.0,1129600000.0,0.04903918143249314,0.13510430247718383,0.0,0.6396306463688545,0.0,0.5738707262290991,0.7083853256800599,0.08834539555777389,0.5958322934863988,32.90055248618785,0.7430746194160219,1.422243360852991,0.0321220424649852,0.06974565021402863,-0.7148485472318253,2.004699401571673,-0.030879753529875275,990300000.0,0.8766820113314447,0.025042916287993537,24800000.0,0.025042916287993537,965500000.0,965500000.0,-18100000.0,0.9172003659652334,0.11344922232387923,0.12369077306733167,0.009499004136663092,0.19351983002832862,0.08372912517236096,99.0,2.2639524245196707,0.11344922232387923,-0.00693274092232266,0.48360655737704916,0.37930902405392986,0.36981001991726675,0.8766820113314447,1.3112606232294617,0.8547273371104815,0.43266431745058986,2.3112606232294617,1.3112606232294617,0.9395679252627481,0.025042916287993537,0.3223737510126924,0.03968494395637685,1.44141689373297,0.0,801400000.0,,0.8390441047267616,0.503806657223796,18144636.251541305,2392200000.0,0.007584916082075623,2392200000.0,0.23731293370119555,0.19960705626619848,0.30695572238394364,9.98936170212766,inf,32.314516129032256,0.23502374751034166,0.23502374751034166,0.016428392274893403,0.02959618760973163,0.016428392274893403,0.21744292937030796,0.21744292937030796,0.00694983769401766,0.503806657223796,0.42271600566572237,0.6113438607798904,0.0,0.0,0.15428221234870537,0.17251274144502976,0.35655737704918034,0.007200857974567183,0.0,1.0305745914602003,-19.213740458015266,-0.7348189957181783
2000,1489895000,225448000.0,1264447000,0.8487,0.0,102649000,464935000.0,567584000,793032000,0.0,0.0,370026000.0,1003583000.0,0.6736,696863000,0.4677,-63306000,633557000,0.4252,236626000,396931000,0.2664,0.82,0.81,467736000,476408000,20152000.0,0.0,20152000.0,342579000.0,16623000.0,15073000.0,394427000.0,2525007000.0,0.0,0.0,0.0,0.0,0.0,81381000.0,2606388000.0,0.0,3000815000.0,246030000.0,0.0,0.0,0.0,123648000.0,369678000.0,859000000.0,0.0,340079000.0,51133000.0,1250212000.0,0.0,0.0,1619890000.0,0.0,201247000.0,1301067000.0,-2597721000.0,2476332000.0,1380925000.0,3000815000.0,0.0,3000815000.0,396931000,370026000.0,97729000,0.0,42849000.0,0.0,2345000.0,0.0,24749000.0,59875000,967410000,-602638000,0.0,0.0,0.0,-64523000,-667161000,0.0,127090000.0,-272723000.0,-26071000.0,-133229000,-304933000,0.0,-4684000.0,20152000.0,24836000,364772000,7.800000000000001,8.24,6.6850000000000005,98393600.0,0.0625,0.3399999999999999,7.025,0.37348809972899044,0.0,0.0,364772000.0,3000815000.0,791772000.0,633557000.0,873112000.0,1380925000.0,1380925000.0,1380925000.0,0.244830675987234,0.0811809431316615,0.0,0.31205890347977544,0.0,0.24835709899019728,0.42523600656422095,0.5314280536547877,0.5860225049416234,0.8144843391025208,0.38095570493222675,3.1853331794003457,1.4898639403424154,0.7798672755571519,-1.2884148322985616,2.952359878221903,-0.05573870730497545,859000000.0,0.6220468164454985,0.023459837019790455,20152000.0,0.023459837019790455,838848000.0,838848000.0,24749000.0,1.0669474515659574,0.05451230530353443,0.051091837019270996,0.006715508953400993,0.2677031699766461,0.12319253269528445,99.0,2.4323411184868995,0.05451230530353443,0.008247426115905178,0.4166241504391307,0.2862555672375671,0.2795400582841661,0.6220468164454985,1.1730470517949925,0.6074536995130075,0.46018331686558483,2.1730470517949927,1.1730470517949925,0.8358531382058085,0.023459837019790455,0.5389946230916914,0.4246472642607683,1.614106655852082,0.0,1489895000.0,,2.19965686731447,0.28743849231493385,436592962.3585565,2631137000.0,0.1659331925166027,2631137000.0,0.24079209862504308,0.3318382889222416,0.4964967850400641,13.56241352343139,inf,73.93286026200873,0.42136786173089646,0.42136786173089646,0.1386366426377646,0.3009238971592889,0.1386366426377646,0.21112831014241132,0.21112831014241132,0.1454914622722682,0.28743849231493385,0.6322660535510618,0.3050811372511946,0.0,0.0,0.20082477593587075,0.23866785319803074,0.4335712131537599,0.005539495103830126,0.0,1.0656814408549597,0.3277718684548156,0.11913513879768789
2001,1654887000,393429000.0,1261458000,0.7623,0.0,79963000,487732000.0,567695000,961124000,0.0,0.0,392399000.0,1023844000.0,0.6187,674552000,0.4076,-43107000,631445000,0.3816,232829000,398616000,0.2409,0.84,0.82,463060000,469952000,2512000.0,0.0,2512000.0,194624000.0,18871000.0,56414000.0,272421000.0,3055910000.0,0.0,0.0,0.0,0.0,0.0,85713000.0,3141623000.0,0.0,3414044000.0,219561000.0,0.0,0.0,0.0,91286000.0,310847000.0,855969000.0,0.0,551020000.0,53522000.0,1460511000.0,0.0,0.0,1771358000.0,0.0,201247000.0,1668708000.0,-3009693000.0,2782424000.0,1642686000.0,3414044000.0,0.0,3414044000.0,398616000,392399000.0,164945000,0.0,-63175000.0,0.0,-2248000.0,0.0,-38426000.0,304642000,1197427000,-974016000,0.0,0.0,0.0,-114039000,-1088055000,0.0,30805000.0,-126769000.0,-28580000.0,-2468000,-127012000,0.0,-17640000.0,2512000.0,20152000,223411000,9.69,9.335,7.61,114473200.0,0.03875,0.37875,7.98875,0.36872411690646056,0.0,0.0,223411000.0,3414044000.0,789096000.0,631445000.0,770947000.0,1642686000.0,1642686000.0,1642686000.0,0.13500075835993636,0.0633893478815783,0.0,0.2947222378325529,0.0,0.23711528340001461,0.3815638167439831,0.4768277229804814,0.46586081104027044,0.8415881948315326,0.3430415490604494,3.5738068500842224,1.4567269900228912,0.4824666349933054,-2.103433680300609,3.5474582127586056,-0.06171986351660692,855969000.0,0.5210788915227864,0.0029346857187585065,2512000.0,0.0029346857187585065,853457000.0,853457000.0,-38426000.0,0.8763829150675413,0.008081146030040502,0.009221021874231428,0.0007357843074078717,0.1892309303177844,0.09104950024077019,99.0,2.572091736449121,0.008081146030040502,-0.01125527380432121,0.42779501377252316,0.25071996728806073,0.24998418298065286,0.5210788915227864,1.0783302469248535,0.519549688741488,0.48115548598670665,2.0783302469248537,1.0783302469248535,0.8335810924320501,0.0029346857187585065,0.43522935510495336,0.26100361111208464,1.7301053676145974,0.0,1654887000.0,,1.9340593453348587,0.2426611050438124,425828409.49251324,3103197000.0,0.13722248683938315,3103197000.0,0.20348208637737147,0.24843637062036344,0.4847292536358641,20.84833872078851,inf,658.7925955414013,0.36949084428906015,0.36949084428906015,0.07199381798835201,0.2542848552637812,0.07199381798835201,0.18495514410476258,0.18495514410476258,0.12472844799086164,0.2426611050438124,0.46932097795926914,0.23887702342171308,0.0,0.0,0.285296850304214,0.3187318998268928,0.4887775318654358,0.005527462446295361,0.0,1.0716980753406788,0.30161451316184074,0.0658147139603299
2002,1095036000,354836000.0,740200000,0.676,0.0,88952000,469917000.0,558869000,913705000,0.0,0.0,398036000.0,517708000.0,0.4728,181331000,0.1656,-61659000,119672000,0.1093,32499000,87173000,0.0796,0.17,0.16,461340000,468980000,9848000.0,0.0,9848000.0,310133000.0,18928000.0,55883000.0,394792000.0,3321548000.0,0.0,0.0,0.0,0.0,0.0,97666000.0,3419214000.0,0.0,3814006000.0,201931000.0,0.0,0.0,0.0,74420000.0,276351000.0,1145132000.0,0.0,660948000.0,59180000.0,1865260000.0,0.0,0.0,2141611000.0,147999000.0,201247000.0,1723948000.0,-64910000.0,-335889000.0,1672395000.0,3814006000.0,0.0,3814006000.0,87173000,398036000.0,82179000,0.0,156867000.0,0.0,-57000.0,0.0,118441000.0,-55685000,668570000,-714127000,0.0,0.0,0.0,-158411000,-872538000,0.0,17339000.0,-63038000.0,-29152000.0,286155000,211304000,0.0,7336000.0,9848000.0,2512000,-45557000,9.38,9.345,7.66,69472600.0,0.04,0.4187499999999999,8.07875,0.27156728390935225,0.0,0.0,-45557000.0,3814006000.0,253212000.0,119672000.0,703735000.0,1524396000.0,1672395000.0,1524396000.0,-0.041603198433658804,0.12017292623615239,0.0,0.42913383669577987,0.0,0.36349124594990484,0.10928590475564273,0.2312362333293152,0.6426592367739508,3.0820378203396,0.5103658692499607,2.37359864741839,0.3930528460571379,-0.09874929553041141,-1.5479407812025838,3.62508128495253,-0.06318983829713444,1145132000.0,0.6847257974342186,0.008599881935008366,9848000.0,0.008599881935008366,1135284000.0,1135284000.0,118441000.0,1.4285890045630376,0.03563583992820724,0.024944781049261382,0.0025820620103901254,0.16524266097423157,0.0724568865387207,99.0,2.652015009896834,0.03563583992820724,0.031054224875367263,0.4890553397136764,0.30024389054448264,0.2976618285340925,0.6847257974342186,1.2805652970739567,0.6788372364184299,0.4384877737476029,2.2805652970739567,1.2805652970739567,2.192904108107273,0.008599881935008366,0.3286007589613613,-0.03978318656713811,4.13671606388157,0.0,1095036000.0,,8.072855127160933,0.05718527206841267,132087432.84143324,3537655000.0,0.03733756763772421,3537655000.0,0.033828058417228364,0.19892697281108532,0.2871091445582414,18.746618765849536,inf,111.19374492282697,0.1940741571984942,0.1940741571984942,-0.012877739632609738,0.07157622775539163,-0.012877739632609738,0.03137698262666603,0.03137698262666603,0.03463220373576582,0.05718527206841267,0.42079472851808336,0.05056591034068313,0.0,0.0,0.18723803790555127,0.21499824780493915,0.4520045327668598,0.004962760939547552,0.0,1.3344154726807613,-0.36321531268520757,0.03196203265161056
2003,1820394000,330115000.0,1490279000,0.8187,0.0,100403000,692562000.0,792965000,1123080000,0.0,0.0,441843000.0,1095719000.0,0.598,697314000,0.3831,-43438000,653876000,0.3592,216600000,430145000,0.2363,0.92,0.9,458388000,466076000,4443000.0,0.0,4443000.0,303094000.0,21922000.0,66555000.0,396014000.0,4248917000.0,0.0,0.0,0.0,0.0,0.0,104084000.0,4353001000.0,0.0,4749015000.0,282379000.0,0.0,0.0,0.0,194140000.0,476519000.0,1108872000.0,0.0,769128000.0,171115000.0,2049115000.0,0.0,0.0,2525634000.0,148416000.0,201247000.0,2121214000.0,50461000.0,-297957000.0,2223381000.0,4749015000.0,0.0,4749015000.0,430145000,441843000.0,191726000,0.0,-198946000.0,0.0,-2994000.0,0.0,-80505000.0,455533000,1320301000,-1204383000,0.0,0.0,0.0,-64127000,-1268510000,0.0,35138000.0,-21295000.0,-31294000.0,-39745000,-57196000,0.0,-5405000.0,4443000.0,9848000,115918000,10.34,10.45,8.59,80236000.0,0.045,0.4637499999999999,9.05375,0.33125546739748823,0.0,0.0,115918000.0,4749015000.0,948033000.0,653876000.0,723611000.0,2074965000.0,2223381000.0,2074965000.0,0.06367742367861023,0.06737194847407767,0.0,0.38044621109496074,0.0,0.2427183346022894,0.35919476772610764,0.5207845114848764,0.3975024088191897,1.1371706290136152,0.4356007545619245,3.9712950600801067,1.5212309222754523,0.25288183809349285,-2.627431346370324,4.850434566349905,-0.06826967547143468,1108872000.0,0.49873233602338063,0.004006774451875419,4443000.0,0.004006774451875419,1104429000.0,1104429000.0,-80505000.0,0.8310560544280501,0.0093238674638367,0.01121930032776619,0.000935562427155947,0.2143217919016129,0.10034059694484014,99.0,1.5842075552076622,0.0093238674638367,-0.016951936348906037,0.4314821073422594,0.2334951563640039,0.23255959393684797,0.49873233602338063,1.1359429625421824,0.49673402804107797,0.46817729571290045,2.1359429625421824,1.1359429625421824,1.0079491183414726,0.004006774451875419,0.2865066751556243,0.10453686268568418,2.3050015560558865,0.0,1820394000.0,,1.6822490090550861,0.20730229184588655,466324925.0071879,4272496000.0,0.10914578387134544,4272496000.0,0.1530430923750426,0.16936493328489952,0.38332033063698473,15.058616914515099,inf,409.7218095881161,0.31380802124229973,0.31380802124229973,0.027131213229924615,0.22189207432844876,0.027131213229924615,0.1376866571278465,0.1376866571278465,0.09819403076368213,0.20730229184588655,0.3254552413643905,0.20278246324981827,0.0,0.0,0.25360690585310847,0.28345646667138946,0.44666399242790344,0.004616115131243005,0.0,1.0727522114635761,-0.3893873255232147,-0.04119395574960368
2004,2302341000,457169000.0,1845172000,0.8014,0.0,115013000,750964000.0,865977000,1323146000,0.0,0.0,504403000.0,1430415000.0,0.6213,979195000,0.4253,-53183000,926012000,0.4022,301157000,624855000,0.2714,1.31,1.29,467504000,476752000,20980000.0,0.0,20980000.0,450974000.0,40037000.0,74812000.0,586803000.0,5101603000.0,0.0,0.0,0.0,0.0,0.0,110517000.0,5212120000.0,0.0,5798923000.0,424581000.0,0.0,0.0,0.0,207623000.0,632204000.0,1077622000.0,0.0,902354000.0,241319000.0,2221295000.0,0.0,0.0,2853499000.0,98826000.0,201247000.0,2706845000.0,118154000.0,-179648000.0,2945424000.0,5798923000.0,0.0,5798923000.0,624855000,504403000.0,204231000,0.0,35104000.0,0.0,-17898000.0,0.0,-45401000.0,75754000,1444347000,-1416684000,0.0,0.0,0.0,19776000,-1396908000,0.0,75510000.0,-50000000.0,-37595000.0,-31153000,-43238000,12336000.0,16537000.0,20980000.0,4443000,27663000,13.99,14.685,12.135,91136200.0,0.0574999999999999,0.5212499999999999,12.65625,0.32521932761130523,0.0,0.0,27663000.0,5798923000.0,1225756000.0,926012000.0,1217545000.0,2846598000.0,2945424000.0,2846598000.0,0.01201516195906688,0.06233185849340874,0.0,0.32617409845022954,0.0,0.21908266412316854,0.4022045387716242,0.532395505270505,0.5288291352149833,0.8843764520856418,0.37612890531854315,4.924751445976933,2.094516838358602,0.05917168623156165,-3.030314179130018,6.300318286046751,-0.08041642424449845,1077622000.0,0.365863115123663,0.019468793324560932,20980000.0,0.019468793324560932,1056642000.0,1056642000.0,-45401000.0,0.9281861551018342,0.03318549075931187,0.03575305511389683,0.0036179131883627355,0.21463938638376004,0.10902093371476049,99.0,1.9853401750068016,0.03318549075931187,-0.007829212424445021,0.38305302553594867,0.18583140352096414,0.18221349033260142,0.365863115123663,0.9687905714083949,0.35874020175024035,0.5079260407492908,1.9687905714083949,0.9687905714083949,0.7386961126666037,0.019468793324560932,0.4266849226160584,0.02567041133161721,1.9948749139235815,0.0,2302341000.0,,1.948524057581359,0.21950939331791844,660741860.499648,5166719000.0,0.12788422604357774,5166719000.0,0.17922631364314567,0.23565148404625838,0.39702906901850565,11.418662736968304,inf,109.73979980934223,0.318192188446027,0.318192188446027,0.005354074800661696,0.23724069375555357,0.005354074800661696,0.15968689358351543,0.15968689358351543,0.11394216831291741,0.21950939331791844,0.41336832999255796,0.23084254916701916,0.0,0.0,0.24430122627943154,0.2776938934683863,0.46678409076995847,0.006904213075427971,0.0,1.0601659585023726,-2.281205942956295,-0.04411656756955149
2005,3606990000,571283000.0,3035707000,0.8416,0.0,125918000,840042000.0,965960000,1537243000,0.0,0.0,654258000.0,2619395000.0,0.7262,1991815000,0.5522,-26678000,1965137000,0.5448,705561000,1259576000,0.3492,2.62,2.56,477594000,487950000,643811000.0,0.0,643811000.0,762462000.0,63215000.0,93750000.0,1563238000.0,6087179000.0,0.0,0.0,0.0,0.0,0.0,102903000.0,6190082000.0,0.0,7753320000.0,679548000.0,126075000.0,0.0,0.0,366418000.0,1172041000.0,858992000.0,0.0,1122588000.0,283407000.0,2264987000.0,0.0,0.0,3437028000.0,99062000.0,202495000.0,3920483000.0,140891000.0,-46639000.0,4316292000.0,7753320000.0,0.0,7753320000.0,1259576000,654258000.0,270291000,0.0,436598000.0,0.0,-23085000.0,0.0,391197000.0,-251297000,2369426000,-1724763000,0.0,0.0,0.0,46655000,-1678108000,0.0,64668000.0,0.0,-42986000.0,-93992000,-72310000,3823000.0,622831000.0,643811000.0,20980000,644663000,27.055,29.475,24.425,112981800.0,0.075,0.5962499999999998,25.02125,0.35903908989551364,0.0,0.0,644663000.0,7753320000.0,2255531000.0,1965137000.0,2377110000.0,4217230000.0,4316292000.0,4217230000.0,0.17872602918222674,0.041478970137763624,0.0,0.23289279981369507,0.0,0.1813861419077957,0.5448135425936862,0.6253222215753301,0.6590287192368152,0.4849647181088605,0.26780223954044785,7.552419000238697,4.170519311381634,1.3498138586330648,-3.611358182891745,9.037575848942826,-0.09000531832476957,985067000.0,0.22822065791656357,0.6535707723434041,643811000.0,0.6535707723434041,341256000.0,341256000.0,391197000.0,1.3337741597776869,0.5493075754175835,0.4118445175974484,0.08303681519658675,0.2715388578900593,0.1511663390650715,99.0,2.064856092918251,0.5493075754175835,0.05045541780811317,0.29213124184220435,0.127050992349084,0.04401417715249725,0.22822065791656357,0.7962918171430478,0.0790623062573153,0.5567024190927241,1.7962918171430478,0.7962918171430478,0.13028046552734507,0.6535707723434041,0.6916178745125149,0.7504877810270643,1.3121457435781927,0.0,3606990000.0,,1.8872303060712494,0.2986737740175423,1276675555.1597676,6581279000.0,0.19398593421731058,6581279000.0,0.2985949995434018,0.3611927104138876,0.4652187707975422,9.037143083129004,inf,5.602560378744694,0.3915363998906275,0.3915363998906275,0.09795406029739812,0.3427192495562033,0.09795406029739812,0.2534574865992891,0.2534574865992891,0.16466179071156198,0.2986737740175423,0.5507296540641828,0.32128082177629647,0.0,0.0,0.22245476776400303,0.2833435652212626,0.5056521593330341,0.008153281432986128,0.0,1.0341273571424034,-0.1669926767939218,-0.04109880334962845
2006,3904415000,717798000.0,3186617000,0.8162,0.0,164981000,1017952000.0,1182933000,1900731000,0.0,0.0,817089000.0,2729730000.0,0.6991,1895426000,0.4855,17215000,1912641000,0.4899,612756000,1299885000,0.3329,2.67,2.62,483564000,492200000,218255000.0,0.0,218255000.0,848445000.0,113591000.0,169789000.0,1350080000.0,7944047000.0,0.0,0.0,0.0,0.0,0.0,108033000.0,8052080000.0,0.0,9402160000.0,896572000.0,0.0,0.0,0.0,358440000.0,1255012000.0,733442000.0,0.0,1513128000.0,300907000.0,2547477000.0,0.0,0.0,3802489000.0,52887000.0,202495000.0,5151034000.0,176704000.0,16551000.0,5599671000.0,9402160000.0,0.0,9402160000.0,1299885000,817089000.0,385842000,0.0,-296129000.0,0.0,-50370000.0,0.0,95068000.0,371866000,2578553000,-2819230000,0.0,0.0,0.0,108857000,-2710373000,0.0,36033000.0,-50199000.0,-60443000.0,-224273000,-298882000,5146000.0,-425556000.0,218255000.0,643811000,-240677000,35.03,34.185,28.385,148580000.0,0.11,0.7062499999999998,29.09125,0.32037167455889526,0.0,0.0,-240677000.0,9402160000.0,2204547000.0,1912641000.0,1803630000.0,5546784000.0,5599671000.0,5546784000.0,-0.061642269072319414,0.05177308725836836,0.0,0.26071818697551363,0.0,0.20927309212775794,0.48986621555341836,0.5646292722469307,0.4619462838863184,0.6240987514152492,0.30297317267759705,8.074246635398831,3.9197003912615496,-0.4977148836555244,-5.830107286729368,11.57999975184257,-0.12499483005351929,733442000.0,0.1309794807587803,0.2975763591395093,218255000.0,0.2975763591395093,515187000.0,515187000.0,95068000.0,1.0757506701131145,0.17390670368092098,0.16166079047167575,0.02321328290520476,0.22412245290839408,0.13348124260808156,99.0,1.4853029293743805,0.17390670368092098,0.010111293575093383,0.27094593157317043,0.07800781947977911,0.05479453657457435,0.1309794807587803,0.6790557873846517,0.09200308375259904,0.595572825818748,1.6790557873846517,0.6790557873846517,0.18873185260080666,0.2975763591395093,0.4743287883278558,-0.3281472836297894,1.3929908818820909,0.0,3904415000.0,,1.3875304353846687,0.23434930943768498,1288185198.3775313,8147148000.0,0.15811486404537284,8147148000.0,0.23476202960839793,0.2213817645144043,0.4152678746160457,6.3191450026850715,inf,17.889235069070583,0.3389239281186451,0.3389239281186451,-0.02954125787330732,0.27059125475565193,-0.02954125787330732,0.20342570217907374,0.20342570217907374,0.1370094955177886,0.23434930943768498,0.3220957088371799,0.25235418752817396,0.0,0.0,0.2998491835918555,0.3548858661082947,0.5478564500072324,0.012081372790933147,0.0,1.0464987287336958,0.1922784478782767,-0.01695295871752884
2007,4038496000,916050000.0,3122446000,0.7732,0.0,205210000,1121323000.0,1326533000,2242583000,0.0,0.0,1065545000.0,2696413000.0,0.6677,1648396000,0.4082,-17528000,1630868000,0.4038,540950000,1089918000,0.2699,2.23,2.19,486938000,495274000,54231000.0,0.0,54231000.0,946040000.0,102322000.0,189446000.0,1292039000.0,10429254000.0,0.0,0.0,0.0,0.0,0.0,367614000.0,10796868000.0,0.0,12088907000.0,1152140000.0,0.0,0.0,0.0,322030000.0,1474170000.0,1185000000.0,0.0,2071307000.0,368336000.0,3624643000.0,0.0,0.0,5098813000.0,4977000.0,202495000.0,6156721000.0,466702000.0,159199000.0,6990094000.0,12088907000.0,0.0,12088907000.0,1089918000,1065545000.0,426827000,0.0,-277199000.0,0.0,9638000.0,0.0,-182131000.0,588274000,2893365000,-3679062000,0.0,0.0,0.0,223288000,-3455774000,0.0,55320000.0,-51197000.0,-84020000.0,473620000,393723000,4662000.0,-164024000.0,54231000.0,218255000,-785697000,35.975,36.35,30.335,109033800.0,0.1649999999999999,0.8712499999999997,31.20625,0.33169453321789377,0.0,0.0,-785697000.0,12088907000.0,1851691000.0,1630868000.0,1895792000.0,6985117000.0,6990094000.0,6985117000.0,-0.19455188268107731,0.06572091238727587,0.0,0.277658563980254,0.0,0.26384698660095246,0.4038305349318162,0.4585100492856747,0.46943020371940447,0.8047417004166475,0.32847203513387163,8.293655455109274,3.385227688124566,-1.6135462830996965,-7.5555039861337585,14.355203331841015,-0.1725476344010942,1185000000.0,0.1695256172520713,0.04576455696202532,54231000.0,0.04576455696202532,1130769000.0,1130769000.0,-182131000.0,0.8764518339133207,0.03678748041270681,0.04197319121172039,0.004486013499814334,0.2108941596493552,0.12194402686694504,99.0,1.343001146407809,0.03678748041270681,-0.015065960884635807,0.29983215190587537,0.09802375020338894,0.09353773670357461,0.1695256172520713,0.7294341106142492,0.16176735248481636,0.5782238212271796,1.7294341106142492,0.7294341106142492,0.4193604614723338,0.04576455696202532,0.37181045863027334,-0.6630354430379747,1.8909614365455143,0.0,4038496000.0,,1.7393895687565486,0.15603432268922626,1101632058.2217567,10614737000.0,0.10378326455208044,10614737000.0,0.15364186602079732,0.1785999973433162,0.33406626422057845,8.952620159887415,inf,74.46840368055172,0.25829018289246497,0.25829018289246497,-0.07401945050546235,0.17444530184779897,-0.07401945050546235,0.13490615818286963,0.13490615818286963,0.09112751535120228,0.15603432268922626,0.2712112312080496,0.1770289737020729,0.0,0.0,0.30433371685297933,0.3527636780157047,0.5092868197265477,0.008464123348785792,0.0,1.0770883681157666,0.11218446805829728,-0.03268898347545424
2008,6386519000,1275720000.0,5110799000,0.8002,0.0,243708000,907047000.0,1150755000,2426475000,0.0,0.0,1326875000.0,5073414000.0,0.7944,3767185000,0.5899,-20646000,3746539000,0.5866,1309620000,2436919000,0.3816,4.94,4.86,493324000,501084000,331311000.0,0.0,331311000.0,749748000.0,187970000.0,839422000.0,2108451000.0,13657302000.0,0.0,0.0,0.0,0.0,0.0,185473000.0,13842775000.0,0.0,15951226000.0,1122209000.0,37000000.0,0.0,0.0,605707000.0,1764916000.0,1860000000.0,0.0,2813522000.0,498291000.0,5171813000.0,0.0,0.0,6936729000.0,0.0,202498000.0,8466143000.0,27787000.0,318069000.0,9014497000.0,15951226000.0,0.0,15951226000.0,2436919000,1326875000.0,1133630000,0.0,525666000.0,0.0,-92049000.0,0.0,343535000.0,-789841000,4633249000,-5195471000,0.0,0.0,0.0,228953000,-4966518000,0.0,72572000.0,-23229000.0,-115204000.0,710966000,645105000,-34756000.0,277080000.0,331311000.0,54231000,-562222000,50.135000000000005,51.235,42.94,161914000.0,0.2324999999999999,1.1037499999999996,44.04375,0.3495546156065638,0.0,0.0,-562222000.0,15951226000.0,3540216000.0,3746539000.0,4310106000.0,9014497000.0,9014497000.0,9014497000.0,-0.08803261996088949,0.047684911889510816,0.0,0.14202525663824064,0.0,0.20776184960852695,0.5866324049141637,0.5543263865652008,0.6748756247339122,0.3054681413309938,0.18018501158455805,12.945891543894074,7.636330281924253,-1.1396607503385199,-10.531559380853151,18.272974758981928,-0.23352603968183183,1897000000.0,0.21043880762287678,0.17464997364259358,331311000.0,0.17464997364259358,1565689000.0,1565689000.0,343535000.0,1.1946466574046584,0.1877205487399967,0.1571347875762823,0.020770253020049995,0.195786409380357,0.11064453603754344,99.0,2.507377121630718,0.1877205487399967,0.021536589099797093,0.32422667699648916,0.11892502808248093,0.09815477506243094,0.21043880762287678,0.7695081600226834,0.17368567541816254,0.5651287869659674,1.7695081600226834,0.7695081600226834,0.3086065911435574,0.17464997364259358,0.6213455938670805,-0.3022698924731183,1.3672704415606531,0.0,6386519000.0,,1.7686701937979883,0.27033333085584255,2450348095.4061866,14186310000.0,0.1727262477279988,14186310000.0,0.264095384916867,0.3038215011514622,0.40037793960163315,6.786827685268926,inf,19.2765075714359,0.3204016418549897,0.3204016418549897,-0.039631306520159226,0.2495515747223908,-0.039631306520159226,0.23487467358308384,0.23487467358308384,0.1536150321866286,0.27033333085584255,0.47813050467485874,0.28784288193572916,0.0,0.0,0.3257098231822432,0.3804170838427678,0.5307518682263044,0.011784047194867654,0.0,1.0472744477760647,0.29267264532515624,-0.032433189958477666
2009,4786959000,1141086000.0,3645873000,0.7616,0.0,645649000,1723551000.0,2369200000,3510286000,0.0,100901000.0,0.0,972912000.0,0.2032,970841000,0.2028,-98830000,872011000,0.1822,325384000,546627000,0.1142,1.1,1.08,498000000,503800000,685751000.0,0.0,685751000.0,808426000.0,261723000.0,83641000.0,1839541000.0,16139225000.0,0.0,0.0,0.0,0.0,0.0,139901000.0,16279126000.0,0.0,18118667000.0,979139000.0,37000000.0,0.0,0.0,329421000.0,1345560000.0,2760000000.0,0.0,3382413000.0,632652000.0,6775065000.0,0.0,0.0,8120625000.0,0.0,202526000.0,8866747000.0,339720000.0,589049000.0,9998042000.0,18118667000.0,0.0,18118667000.0,546627000,0.0,174392000,95180000.0,150446000.0,-47818000.0,-50146000.0,-153565000.0,493981000.0,1955794000,2922439000,-3503009000,0.0,-118221000.0,0.0,206679000,-3414551000,0.0,0.0,-10986000.0,-142260000.0,987408000,834162000,12390000.0,354440000.0,685751000.0,331311000,-580570000,35.12,36.3,30.66,143595200.0,0.285,1.3887499999999997,32.04875,0.37314208192327847,0.0,-100901000.0,-643820590.7918593,18118667000.0,3000224000.0,972912000.0,795903000.0,9998042000.0,9998042000.0,9998042000.0,-0.12128159025385428,0.1770903703996272,0.0,0.36005133948295776,-0.021078308796879188,0.0,0.20324218360758886,0.6267494666238002,0.16626484580294087,2.4403584109035363,0.49492799081838806,9.612367469879517,1.949479919678715,-1.1658032128514055,-7.034154618473895,20.076389558232933,-0.28566265060240964,2797000000.0,0.27975477598513787,0.24517375759742582,685751000.0,0.24517375759742582,2111249000.0,2111249000.0,493981000.0,1.3671192663277743,0.5451774725764738,0.3727837542082509,0.03784776220016627,0.13458235122436973,0.07426374136684559,9.642243387082388,0.6972286631588335,0.5096398525520973,0.027263650245351934,0.3739273424474328,0.15437117973413828,0.11652341753397201,0.27975477598513787,0.8122215329761567,0.21116624635103554,0.5518089161857216,1.8122215329761566,0.8122215329761567,2.170030794151989,0.24517375759742582,0.09801006695913184,-0.2103514492753623,8.346720977847944,0.03607472291741151,4834777000.0,-inf,1.4560257726017924,0.05467340505270932,608579368.0435224,16773107000.0,0.03628304332903393,16773107000.0,0.05800428030417978,0.04745113710894469,0.2642003961991244,4.359899588496234,-100.10788824292108,6.9806081216068225,0.20122192212042972,0.20122192212042972,-0.03838409847333945,0.1788710940674259,-0.03838409847333945,0.05369666543350016,0.05369666543350016,0.0335885287832445,0.05467340505270932,0.07960588683264183,0.061649103103990674,0.0,0.0,0.19333701535548944,0.21704939363569192,0.4893708240236437,0.014444936815716078,-0.0026391566222835265,1.2602505913538848,0.22611226897703982,-0.134928955547881
2010,6099896000,1410244000.0,4689652000,0.7688,0.0,1164686000,2259000000.0,3423686000,4833930000,0.0,129586000.0,0.0,537562000.0,0.0881,523319000,0.0858,-115343000,407976000,0.0669,247322000,160654000,0.0263,0.32,0.32,501800000,509000000,788853000.0,0.0,788853000.0,1168195000.0,415792000.0,154606000.0,2527446000.0,18680900000.0,0.0,0.0,0.0,0.0,0.0,415887000.0,19096787000.0,0.0,21624233000.0,1664944000.0,220000000.0,0.0,0.0,335155000.0,2220099000.0,5003341000.0,0.0,3501706000.0,667455000.0,9172502000.0,0.0,0.0,11392601000.0,0.0,202542000.0,8870179000.0,440071000.0,718840000.0,10231632000.0,21624233000.0,0.0,21624233000.0,160654000,0.0,76245000,107378000.0,-186634000.0,-339126000.0,-171791000.0,654688000.0,307347000.0,2550959000,2708602000,-5581382000,-210000000.0,0.0,0.0,888608000,-4902774000,-45300000.0,0.0,-11295000.0,-153240000.0,2513254000,2303419000,-6145000.0,103102000.0,788853000.0,685751000,-2872780000,47.84,46.760000000000005,39.72,116628500.0,0.305,1.6937499999999994,41.41375,0.6062170323744533,0.0,-129586000.0,-2923808759.642724,21624233000.0,3524966000.0,537562000.0,89363000.0,10231632000.0,10231632000.0,10231632000.0,-0.47095557039005254,0.24835232976775248,0.0,0.37033418274672225,-0.02124396874963114,0.0,0.08812642051602192,0.5778731309517409,0.014649921900307809,6.542254341997902,0.5612695691860976,12.15603029095257,1.042883618971702,-5.724950179354324,-11.122722200079712,20.389860502192107,-0.3053806297329613,5223341000.0,0.5105090761669302,0.15102460283561805,788853000.0,0.15102460283561805,4434488000.0,4434488000.0,307347000.0,1.1384384209893343,0.5080759912057976,0.31211468019494776,0.036480045326925586,0.2169838594664077,0.10266717899312314,4.148303057429043,0.1092757575225249,0.3553233436887274,0.014213082147237315,0.42417698699417455,0.241550347704818,0.20507030237789242,0.5105090761669302,1.1134686040311066,0.43340964569484125,0.47315583401270234,2.1134686040311066,1.1134686040311066,8.24925869016039,0.15102460283561805,0.007843950648319905,-0.5741723380437191,21.193092145650176,0.024809025487709878,6439022000.0,-inf,0.5562450981612658,0.015701698419176922,206074108.83483344,19404134000.0,0.010620113674479544,19404134000.0,0.027703478032052344,0.004605358837451855,0.2820861206961653,3.391705468118675,-17.98710803654099,7.732614314707557,0.21687021222903027,0.21687021222903027,-0.1506796829810969,0.181660567794471,-0.1506796829810969,0.024859240094203573,0.024859240094203573,0.009529776562934437,0.015701698419176922,0.008733992778473658,0.018111697633159375,0.0,0.0,0.2581077442145578,0.29877479136444174,0.41019623678675676,0.01922805770729533,-0.01568268340430849,1.953851133491852,0.04941032727880311,-0.26405326269341955
2011,10126115000,0.0,10126115000,1.0,171658000.0,304811000,0.0,476469000,8012806000,0.0,210363000.0,2516381000.0,4882891000.0,0.4579,2113309000,0.2087,42838000,2156147000,0.2129,818676000,1091123000,0.1078,2.08,2.05,525400000,532600000,615726000.0,0.0,615726000.0,1451227000.0,590594000.0,0.0,2657547000.0,2149989000.0,0.0,0.0,0.0,0.0,0.0,0.0,2149989000.0,0.0,4807536000.0,2033615000.0,0.0,147105000.0,135989000.0,0.0,2169604000.0,5009166000.0,0.0,0.0,0.0,5009166000.0,27678359000.0,0.0,24838797000.0,0.0,202693000.0,9789345000.0,401746000.0,2247120000.0,12640904000.0,37479701000.0,-32672165000.0,4807536000.0,1091123000,2516381000.0,-499300000,128345000.0,180596000.0,-339780000.0,176623000.0,351087000.0,487943000.0,1161265000,4578410000,-656415000,0.0,-23922000.0,0.0,-5079739000,-5760076000,-220000000.0,0.0,-23922000.0,-167169000.0,1419630000,1008539000,-5134000.0,442599000.0,615726000.0,173127000,4578410000,52.065,52.075,44.585,102746800.0,0.3175,2.0112499999999995,46.59625,0.37969396335222044,135989000.0,-210363000.0,4447920561.212663,4807536000.0,7304923000.0,2366510000.0,3991610000.0,12640904000.0,12640904000.0,12640904000.0,0.4521388508821004,0.030101475244948335,0.016952009729298945,0.0,-0.02077430485432962,0.24850409066063342,0.23370364646263647,0.7213944340944183,0.394189676889903,0.22546111335351338,0.04705348497424728,19.273153787590406,4.0222858774267225,8.714141606395128,-1.2493623905595737,24.059581271412256,-0.31817472401979446,5009166000.0,0.39626643790665605,0.12291986330658637,615726000.0,0.12291986330658637,4393440000.0,4393440000.0,487943000.0,1.224899566925577,0.4404057145912342,0.231689599468984,0.1280751719799914,0.17163361101389585,0.45129230441540114,11.249649415534101,1.916837819251808,0.28379649005071894,0.10149544381986947,1.0419404035664008,1.0419404035664008,0.9138652315864093,0.39626643790665605,1.9649541678348321,0.34755742152618196,2.6293935188420847,0.3803158381710675,1.9649541678348321,0.8997620467055275,0.12291986330658637,0.16070061686159762,0.9140064433879812,5.086903844464273,0.04199561364107318,10465895000.0,-2.498584444330056,3.6582585098105347,0.08631684885827785,1310898330.0020823,35310097000.0,0.037125310927412135,2637932000.0,0.8971080376598032,1.5131587925693308,2.106300400038606,0.0,-29.801974807228206,16.44581355992763,2.106300400038606,2.106300400038606,0.12596738437769409,2.7691854831739406,1.6861392034414318,0.49225008403473214,0.49225008403473214,0.27267571787337264,0.08631684885827785,0.3157693468758247,0.11146026623844599,0.03570602487428071,0.013579566777819055,0.13653875914813743,0.3053108643811666,2.0362499625587827,0.12284754601941618,-0.07067653783559812,1.1532082084237982,-0.031287499372052746,-0.029336513962732323
2012,11055070000,4267700000.0,6787370000,0.614,0.0,3367039000,1256203000.0,4623242000,8890942000,0.0,213552000.0,3169703000.0,4663995000.0,0.4219,1479797000,0.1339,-199057000,1280740000,0.1159,710461000,570279000,0.0516,1.06,1.05,535200000,541600000,876435000.0,0.0,876435000.0,1685781000.0,683187000.0,344481000.0,3589884000.0,23337681000.0,0.0,0.0,0.0,0.0,0.0,409013000.0,23746694000.0,0.0,27336578000.0,2078948000.0,406579000.0,162083000.0,0.0,438531000.0,2924058000.0,5905602000.0,0.0,4327396000.0,894758000.0,11127756000.0,0.0,0.0,14051814000.0,0.0,202720000.0,10175631000.0,439895000.0,2466518000.0,13284764000.0,27336578000.0,0.0,27336578000.0,570279000,0.0,292938000,127778000.0,177883000.0,-178683000.0,-156762000.0,-17150000.0,665826000.0,4067899000,5236777000,-7355116000,0.0,0.0,0.0,1235853000,-6119263000,-2824000.0,0.0,-58592000.0,-181080000.0,1382247000,1139751000,3444000.0,260709000.0,876435000.0,615726000,-2118339000,54.64,55.225,47.45,87121600.0,0.335,2.3462499999999995,49.79625,0.5547269547292971,0.0,-213552000.0,-2213427949.3636494,27336578000.0,250628000.0,1494292000.0,4116922000.0,13284764000.0,13284764000.0,13284764000.0,-0.19161696850404383,0.49607417895296707,0.0,0.11363139265513471,-0.01931710970622529,0.28671939662073603,0.13516802697766725,0.0226708650420124,0.3724012602362536,3.124240689770286,0.4182010606898012,20.655960388639762,2.764942077727952,-3.9580325112107624,-13.742742899850523,24.822055306427504,-0.3383408071748879,6312181000.0,0.4751443834455772,0.13884820476472395,876435000.0,0.13884820476472395,5435746000.0,5435746000.0,665826000.0,1.2277061535715093,0.3608403116490849,0.2441402006304382,0.03206088925980421,0.2201061306019437,0.10696503417508951,6.997321495467146,1.469875768538107,0.29973242664817185,0.02435659649865466,0.4070647028314956,0.23090604098289114,0.19884515172308692,0.4751443834455772,1.0577390761326284,0.4091714388001172,0.4859702629934149,2.0577390761326284,1.0577390761326284,1.1654699458297018,0.13884820476472395,0.29298153249110753,-0.3586999259347311,3.012827843940656,0.03383172947670544,11233753000.0,-inf,7.219136598051129,0.04292729626209393,658913716.5724503,24412520000.0,0.026990811131847522,24412520000.0,0.06121006762104035,0.16863977991620693,0.40440577456329757,6.246752353308831,-61.86973578907898,12.613679280266078,0.24828894092011078,0.24828894092011078,-0.09066773726610974,0.010266371517565577,-0.09066773726610974,0.05466273064609623,0.05466273064609623,0.024103738096716065,0.04292729626209393,0.3098980155010657,0.05604360063764104,0.0,0.0,0.2690576706418777,0.3151605337308364,0.37223499590914416,0.02499167964622346,-0.006536407007490111,1.317528788540346,0.05782266200074681,-0.026262463831972376
2013,14399395000,4814825000.0,9584570000,0.6656,0.0,3997152000,1656482000.0,5653634000,10468459000,0.0,235460000.0,0.0,3672346000.0,0.255,3675211000,0.2552,-238325000,3436886000,0.2387,1239777000,2197109000,0.1526,4.07,4.02,540340000,546228000,1318209000.0,0.0,1318209000.0,1663650000.0,563268000.0,526888000.0,4072015000.0,26148836000.0,0.0,0.0,0.0,0.0,0.0,353387000.0,26502223000.0,0.0,30574238000.0,2254418000.0,6579000.0,159365000.0,0.0,600719000.0,2861716000.0,5906642000.0,0.0,5522354000.0,865067000.0,12294063000.0,0.0,0.0,15155779000.0,0.0,202732000.0,12168277000.0,415834000.0,2631616000.0,15418459000.0,30574238000.0,0.0,30574238000.0,2197109000,0.0,874765000,134055000.0,544473000.0,-23613000.0,53402000.0,178701000.0,1210299000.0,3579012000,7329414000,-7060627000,0.0,0.0,0.0,745849000,-6314778000,-405780000.0,0.0,-63784000.0,-199178000.0,94816000,-573926000,1064000.0,441774000.0,1318209000.0,876435000,268787000,65.97999999999999,69.295,60.010000000000005,75245600.0,0.367,2.7132499999999995,62.72325000000001,0.3607268323709311,0.0,-235460000.0,118263739.95005944,30574238000.0,5587418000.0,3672346000.0,2979907000.0,15418459000.0,15418459000.0,15418459000.0,0.018666548143168517,0.41704030540754566,0.0,0.11503830542880447,-0.01635207590318899,0.0,0.2550347427791237,0.38803144159876163,0.2069466807459619,1.538315487192436,0.39262996813407786,26.64876744272125,6.8016637672576525,0.4974405004256579,-13.067007809897472,28.534735536884185,-0.36861605655698265,5913221000.0,0.38351569375383104,0.22292571172293407,1318209000.0,0.22292571172293407,4595012000.0,4595012000.0,1210299000.0,1.422927711904326,0.46888719914904203,0.32372400396363965,0.043115023831501544,0.18560324348885968,0.09359893123092716,15.59647498513548,1.1109016408336816,0.4606358562484887,0.039585581822186376,0.40210529531431005,0.19340534341362817,0.15029031958212663,0.38351569375383104,0.9829632779773906,0.29802018476684344,0.5042957734547628,1.9829632779773907,0.9829632779773906,1.251247023020162,0.22292571172293407,0.19661853079277547,0.04550588981014932,4.127001921932193,0.039819245720733254,14423008000.0,-inf,1.3562854642168414,0.1424986115668239,2349463777.6751976,27712522000.0,0.0847798615252411,27712522000.0,0.13251576309077898,0.1075292605992338,0.4709649673035187,8.5480179949864,-609.8079447761826,10.923453716368194,0.3134851635550165,0.3134851635550165,0.004267519930162236,0.2016206969542505,0.004267519930162236,0.12011242929423131,0.12011242929423131,0.07684455709657254,0.1424986115668239,0.1932687955391651,0.18056040308747082,0.0,0.0,0.2309338666101834,0.2700168757033774,0.39799117806304773,0.01842296118712754,-0.0007723168767116943,1.0906545829087224,-0.5037222782351825,-0.03686853036179053
2014,16639233000,5559254000.0,11079979000,0.6659,0.0,4528070000,1908374000.0,6436444000,11995698000,0.0,201458000.0,0.0,5196773000.0,0.3123,5241823000,0.315,-246508000,4995315000,0.3002,2079828000,2915487000,0.1752,5.36,5.32,543400000,548500000,2087213000.0,0.0,2087213000.0,1850932000.0,706597000.0,771279000.0,5416021000.0,29172644000.0,0.0,0.0,0.0,0.0,0.0,174022000.0,29346666000.0,0.0,34762687000.0,2860548000.0,6579000.0,140098000.0,0.0,517181000.0,3384308000.0,5903354000.0,0.0,6822946000.0,939497000.0,13665797000.0,0.0,0.0,17050105000.0,0.0,205492000.0,14763098000.0,-23056000.0,2767048000.0,17712582000.0,34762687000.0,0.0,34762687000.0,2915487000,0.0,1704946000,145086000.0,821414000.0,84982000.0,-161958000.0,543630000.0,2031713000.0,3062222000,8649155000,-8246805000,0.0,0.0,0.0,733240000,-7513565000,-505966000.0,0.0,-127424000.0,-279695000.0,585351000,-327734000,-38852000.0,769004000.0,2087213000.0,1318209000,402350000,98.77,98.04,85.195,84867950.0,0.512,3.2252499999999995,88.42025,0.4163557253146198,0.0,-201458000.0,284770191.71043265,34762687000.0,6551909000.0,5196773000.0,3983409000.0,17712582000.0,17712582000.0,17712582000.0,0.024180802083846053,0.40867135217494543,0.0,0.11469122404860849,-0.01210740903742378,0.0,0.31232046573300587,0.3937626812485888,0.23939859487513637,1.2279018196532008,0.3868233589853571,30.620598086124403,9.646343393448657,0.7404306220095693,-15.176306588148693,32.595844681634155,-0.5147129186602871,5909933000.0,0.33365734030193905,0.35317033204944964,2087213000.0,0.35317033204944964,3822720000.0,3822720000.0,2031713000.0,1.600333362093521,0.5916219800325502,0.38537756777530957,0.06004176259447378,0.19106802159052813,0.09735461473389558,25.795813519443257,1.2596678552897669,0.6167325787132849,0.05844522317851897,0.39311682091778466,0.17000794558832577,0.109966182993852,0.33365734030193905,0.9625985076596963,0.21581946663676702,0.5095285643483198,1.9625985076596963,0.9625985076596963,0.7355949547921373,0.35317033204944964,0.23362958761837538,0.06815617020426015,3.280902398469204,0.034088034500560326,16554251000.0,inf,1.3662928354679682,0.16459977432990855,3059359982.864144,31378379000.0,0.09749898115718929,31378379000.0,0.16561636278279385,0.12694757112851496,0.4786520961397489,7.867644498915223,195.79714527782355,7.971986088626316,0.31873194957570455,0.31873194957570455,0.009075363380320974,0.20880329732775552,0.009075363380320974,0.14949284559044587,0.14949284559044587,0.08800700540968377,0.16459977432990855,0.22489149238659842,0.19748476911824334,0.0,0.0,0.2372315178052836,0.2826896663874553,0.42468230375862487,0.020326305616133758,0.0024446326603003964,1.0959342298559382,-0.37845408226668326,-0.029301068182119944
2015,8656393000,4642082000.0,4014311000,0.4637,0.0,2752576000,1387394000.0,4139970000,8782052000,0.0,237393000.0,0.0,-6684163000.0,-0.7722,-6686079000,-0.7724,-235477000,-6921556000,-0.7996,-2397041000,-4524515000,-0.5227,-8.29,-8.29,545700000,545700000,718506000.0,0.0,718506000.0,971314000.0,598935000.0,303489000.0,2592244000.0,24210721000.0,0.0,0.0,0.0,0.0,0.0,172279000.0,24383000000.0,0.0,26975244000.0,1471953000.0,6579000.0,93618000.0,0.0,340755000.0,1819287000.0,6653685000.0,0.0,4587902000.0,971335000.0,12212922000.0,0.0,0.0,14032209000.0,0.0,205502000.0,9870816000.0,-33338000.0,2900055000.0,12943035000.0,26975244000.0,0.0,26975244000.0,-4524515000,0.0,-2482307000,130577000.0,-1258756000.0,641412000.0,58450000.0,-1409197000.0,772957000.0,11730166000,3595165000,-5013163000,0.0,0.0,0.0,-307093000,-5320256000,-506156000.0,0.0,-48791000.0,-367005000.0,1292873000,370921000,-14537000.0,-1368707000.0,718506000.0,2087213000,-1417998000,88.435,86.69999999999999,76.03,100257200.0,0.672,3.89725,79.92725,0.3463153371871874,0.0,-237393000.0,-1573178163.159122,26975244000.0,1261735000.0,-6684163000.0,-5547794000.0,12943035000.0,12943035000.0,12943035000.0,-0.16380933721470364,0.6856907698481757,0.0,0.1602739154749559,-0.027424009053193404,0.0,-0.7721649190372941,0.14575759210562644,-0.640889802484707,-0.6191925043063355,0.4782557815940196,15.862915521348727,-12.252297965915337,-2.59849367784497,-9.186664834157963,23.71822429906542,-0.6725398570643211,6660264000.0,0.5145828625202666,0.10787950747898281,718506000.0,0.10787950747898281,5941758000.0,5941758000.0,772957000.0,1.4248680939291052,0.04237594178378672,0.2771752967699028,0.02663575536147143,0.14056108169374493,0.06744283758841996,-28.15652946801296,-2.8477029737474076,0.3949382367927655,0.028654309855362197,0.45274556181957054,0.2469028269030671,0.2202670715415957,0.5145828625202666,1.0841513601717063,0.4590699167544552,0.47981160059200945,2.084151360171706,1.0841513601717063,-0.888930745704436,0.10787950747898281,-0.39536141458554386,-0.21311468757538116,-2.0993217849415102,0.03564318171171593,8014981000.0,inf,1.2261632462263912,-0.34957141041494516,-4370587296.654827,25155957000.0,-0.17373965524964236,25155957000.0,-0.2657089531517326,-0.22053599471489,0.32090137905703464,7.750560578359922,13.495838867997481,12.047767172438364,0.14881463166746517,0.14881463166746517,-0.06253700319010412,0.050156509648986915,-0.06253700319010412,-0.24778878737853122,-0.24778878737853122,-0.16202215989797264,-0.34957141041494516,-0.42863161538232725,-0.45837294505337756,0.0,0.0,0.1858431011782507,0.20706376319813027,0.365921286939981,0.02220313558609516,0.023777801602091163,0.9188852285825111,0.22441075375282618,0.04760715739577266
2016,7463002000,4603770000.0,2859232000,0.3831,0.0,2402450000,1168023000.0,3570473000,8174243000,0.0,281681000.0,3553417000.0,2277593000.0,0.3052,-1225281000,-0.1642,-332224000,-1557505000,-0.2087,-460819000,-1096686000,-0.1469,-1.98,-1.98,553400000,553400000,1599895000.0,0.0,1599895000.0,1228625000.0,350017000.0,376066000.0,3554603000.0,25707078000.0,0.0,0.0,0.0,0.0,0.0,197752000.0,25904830000.0,0.0,29459433000.0,1511826000.0,6579000.0,118411000.0,0.0,508886000.0,2027291000.0,6979779000.0,0.0,5188640000.0,1282142000.0,13450561000.0,0.0,0.0,15477852000.0,0.0,205770000.0,8398118000.0,-19010000.0,5396703000.0,13981581000.0,29459433000.0,0.0,29459433000.0,-1096686000,0.0,-515206000,128090000.0,754355000.0,-232799000.0,170694000.0,-74048000.0,1527312000.0,3088510000,2359063000,-2582795000,54534000.0,0.0,0.0,1275317000,-1252944000,-570182000.0,0.0,-82125000.0,-372845000.0,782430000,-242722000,17992000.0,881389000.0,1599895000.0,718506000,-223732000,81.685,83.02000000000001,73.28999999999999,77945800.0,0.672,4.569249999999999,77.85924999999999,0.2958699972070716,0.0,-281681000.0,-422072043.3167149,29459433000.0,-3096635000.0,-1275824000.0,3543310000.0,13981581000.0,13981581000.0,13981581000.0,-0.02997882085520009,0.8402431142348714,0.0,0.15650846670012952,-0.03774365865103614,0.4761377526094727,-0.1709531901505587,-0.41493155167317386,0.47478347185221176,-2.9140034000363997,0.4784231600098727,13.485728225514999,-2.214096494398265,-0.4042862305746296,-4.6671395012649075,25.264873509215757,-0.6737350921575713,6986358000.0,0.49968297576647447,0.2290027221622482,1599895000.0,0.2290027221622482,5386463000.0,5386463000.0,1527312000.0,1.753375810379467,0.9040113136199983,0.4500910509556201,0.054308411163242684,0.14499726461549664,0.06881636180845707,-4.529322176504627,1.9317182387728253,0.7891787612138563,0.05184458234481295,0.4565790862302068,0.23715181483635478,0.1828434036731121,0.49968297576647447,1.107017296541786,0.3852542140978191,0.4746045519613361,2.107017296541786,1.107017296541786,2.36498048597796,0.2290027221622482,0.22892776077714141,-0.032054310029013815,6.7957058175011955,0.04031871827925222,7695801000.0,-inf,-3.230924804365151,-0.07843791056247501,-862757113.9521222,27432142000.0,-0.03145059229979643,27432142000.0,-0.04650836234370615,0.1291663625829875,0.25333148808396955,13.152989711928278,-32.05770643344688,4.664682369780516,0.09705658625541096,0.09705658625541096,-0.015386040336066898,-0.11288345620258163,-0.015386040336066898,-0.04330782605354285,-0.04330782605354285,-0.029286276961003364,-0.07843791056247501,0.2534269908388758,-0.1305871148750232,0.0,0.0,0.08767293654294026,0.10047018957191478,0.28507398631874553,0.011881321680563234,-0.007902358473769674,0.6600257503059217,1.299411796256235,-0.1276435254235502
2017,11205978000,4603009000.0,6602969000,0.5892,0.0,3764704000,1353355000.0,5118059000,9721068000,0.0,274372000.0,3409387000.0,4344941000.0,0.3877,926402000,0.0827,-265220000,661182000,0.059,-1921397000,2582579000,0.2305,4.49,4.46,574600000,578700000,834228000.0,0.0,834228000.0,1710851000.0,483865000.0,250164000.0,3279108000.0,25665037000.0,0.0,0.0,0.0,0.0,17506000.0,871427000.0,26553970000.0,0.0,29833078000.0,1847131000.0,356235000.0,148874000.0,0.0,522176000.0,2725542000.0,6030836000.0,0.0,3518214000.0,1275213000.0,10824263000.0,0.0,0.0,13549805000.0,0.0,205788000.0,10593533000.0,-19297000.0,5503249000.0,16283273000.0,29833078000.0,0.0,29833078000.0,2582579000,0.0,-1473872000,133849000.0,-973746000.0,-392131000.0,-174548000.0,324192000.0,553566000.0,3996526000,4265336000,-4124242000,0.0,0.0,0.0,136833000,-3987409000,-606555000.0,0.0,-63408000.0,-386531000.0,20783000,-1035711000,-7883000.0,-765667000.0,834228000.0,1599895000,141094000,96.51,96.865,86.22,61278350.0,0.672,5.241249999999999,91.46125,-2.9060031882295645,0.0,-274372000.0,-930603906.7609221,29833078000.0,-571122000.0,935554000.0,5283440000.0,16283273000.0,16283273000.0,16283273000.0,0.012590958147517334,0.5701532144100631,0.0,0.12077080643920593,-0.024484431434721718,0.3042471616488985,0.08348704593209089,-0.050965832701081515,0.47148405966886603,5.524663159190071,0.456725776188388,19.502224155934563,1.6122554820744865,0.24555168813087366,-7.177587887225896,28.33844935607379,-0.6726957883745214,6387071000.0,0.39224736943242305,0.13061198161097629,834228000.0,0.13061198161097629,5552843000.0,5552843000.0,553566000.0,1.2031030892204193,0.44995050525730296,0.2544069911695498,0.027963189048076098,0.1673829333942875,0.09135973163747971,3.409801291676993,2.0803095310950996,0.30607783699535723,0.018555443725920603,0.3628275634180288,0.21409359771727207,0.18613040866919597,0.39224736943242305,0.8321303094285775,0.3410151632291616,0.5458127049444915,1.8321303094285775,0.8321303094285775,1.278001933743174,0.13061198161097629,0.3899273827187919,0.02339542975468078,3.118524509308642,0.04295740567155117,11598109000.0,-inf,2.045799954231797,0.15860318745500368,3618529165.582245,27107536000.0,0.1334879409763486,27107536000.0,0.0345126904931529,0.19490668572754086,0.37562258912741087,9.513002593698655,-28.57712856162864,13.432752197241042,0.2213304641244192,0.2213304641244192,-0.03433008100628999,-0.021068753722212154,-0.03433008100628999,0.03135962035161105,0.03135962035161105,0.12129251851190966,0.15860318745500368,0.3244703936364636,0.24378826214068527,0.0,0.0,0.13824393178605304,0.16069495633300665,0.35509353074463185,0.016219077361041997,-0.013144168362379504,1.1496686064588924,-2.2901257317816492,-0.07436763813363634
2018,17176842000,5155059000.0,12021783000,0.6999,0.0,5630212000,1584126000.0,7214338000,12369397000,0.0,245052000.0,0.0,4486050000.0,0.2612,4469346000,0.2602,-228348000,4240998000,0.2469,821958000,3419040000,0.199,5.93,5.89,576600000,580400000,1555634000.0,0.0,1555634000.0,2343124000.0,859359000.0,299273000.0,5057390000.0,28075519000.0,0.0,0.0,0.0,0.0,777000.0,800788000.0,28877084000.0,0.0,33934474000.0,2239850000.0,913093000.0,214726000.0,0.0,575421000.0,3728364000.0,5170169000.0,0.0,4413398000.0,1258355000.0,10841922000.0,0.0,0.0,14570286000.0,0.0,205804000.0,13543130000.0,-1358000.0,5616612000.0,19364188000.0,33934474000.0,0.0,33934474000.0,3419040000,0.0,894156000,155337000.0,775460000.0,-368180000.0,-395408000.0,439347000.0,1329026000.0,2524615000,7768608000,-6076475000,0.0,0.0,0.0,-93687000,-6170162000,-358219000.0,0.0,-63456000.0,-438045000.0,20617000,-839103000,-37937000.0,721406000.0,1555634000.0,834228000,1692133000,116.47,116.405,104.14,73264500.0,0.758,5.999249999999999,110.13925,0.19381239981721282,0.0,-245052000.0,1494575116.2000077,33934474000.0,6391571000.0,4486050000.0,4422848000.0,19364188000.0,19364188000.0,19364188000.0,0.09851246230244186,0.4683341896954886,0.0,0.09222451950131462,-0.014266417540546743,0.0,0.26116849651408564,0.3721039641629119,0.2574890075835826,1.6141820302120264,0.420003746905281,29.78987513007284,7.751207075962539,2.934673950745751,-10.538458203260493,33.583399236906004,-0.7597034339229969,6083262000.0,0.3141501208312995,0.2557236561568448,1555634000.0,0.2557236561568448,4527628000.0,4527628000.0,1329026000.0,1.3564635856370246,0.5159941464942801,0.30759621069365817,0.04584229005582936,0.1925391346128224,0.10986950910157028,18.306522697223446,1.3037603088110497,0.4172430588858813,0.03916447916652546,0.3194958024102569,0.17926495633909045,0.13342266628326108,0.3141501208312995,0.7524346489509397,0.23381450335020504,0.5706346884881728,1.7524346489509397,0.7524346489509397,1.0092682872460181,0.2557236561568448,0.30355258640770677,0.3272877540366669,3.2479098538803624,0.04028299290742368,17545022000.0,-inf,1.2935935233281857,0.17656511081177273,3603131326.126539,30206110000.0,0.1192848508505908,30206110000.0,0.14851465481652554,0.14642229668103574,0.5061767570052802,5.998725794458427,-46.65338149818024,11.041698754334245,0.35426460418982775,0.35426460418982775,0.049479231724972456,0.21159861365796523,0.049479231724972456,0.1321974225974447,0.1321974225974447,0.10617908284438236,0.17656511081177273,0.22840348379183265,0.25245567309772554,0.0,0.0,0.17906495323899818,0.21643322070021218,0.3990965058129382,0.025324070147661637,-0.01084973351878093,1.1281192966446723,-0.2213708969685007,-0.0835008526431939
2019,16941727000,5595799000.0,11345928000,0.6697,0.0,5840921000,1591988000.0,7432909000,13028708000,0.0,185129000.0,0.0,3730396000.0,0.2202,3699011000,0.2183,-153744000,3545267000,0.2093,810357000,2734910000,0.1614,4.73,4.71,577700000,580800000,2027972000.0,0.0,2027972000.0,2153323000.0,767297000.0,324747000.0,5273339000.0,30364595000.0,0.0,0.0,0.0,0.0,2363000.0,1484311000.0,31851269000.0,0.0,37124608000.0,2429127000.0,1383889000.0,254850000.0,0.0,673972000.0,4486988000.0,4160919000.0,0.0,5046101000.0,1789884000.0,10996904000.0,0.0,369365000.0,15483892000.0,0.0,205822000.0,15648604000.0,-4652000.0,5790942000.0,21640716000.0,37124608000.0,0.0,37124608000.0,2734910000,0.0,631658000,174738000.0,-542675000.0,-91792000.0,90284000.0,168539000.0,786351000.0,5164549000,8163180000,-6422526000,0.0,0.0,0.0,245353000,-6177173000,-912899000.0,0.0,-25152000.0,-588200000.0,12930000,-1513321000,-348000.0,472338000.0,2027972000.0,1555634000,1740654000,84.83,84.805,76.85,81191450.0,1.016,7.015249999999999,83.86524999999999,0.2285743217647641,0.0,-185129000.0,1597840735.613989,37124608000.0,5505007000.0,3730396000.0,2345979000.0,21640716000.0,21640716000.0,21640716000.0,0.10274359868979119,0.5148032844911408,0.0,0.09396846024021045,-0.010927398369717562,0.0,0.2201898307061612,0.32493777051182565,0.13847342717776057,2.0094314399173183,0.4387338433679164,29.32616756101783,6.402996364895275,3.013075990998788,-11.117406958629045,37.46012809416652,-1.0181755236281806,5544808000.0,0.2562210973056529,0.3657425108317547,2027972000.0,0.3657425108317547,3516836000.0,3516836000.0,786351000.0,1.17525141587185,0.47242470895843713,0.3845707624713678,0.05462608521011185,0.20734008985654634,0.12086290581169234,20.15025198645269,0.6539306545950201,0.45196733309739184,0.021181395369885118,0.2962160300790247,0.14935667468865935,0.0947305894785475,0.2562210973056529,0.715498137861982,0.16251014984901607,0.582921064109283,1.715498137861982,0.715498137861982,0.9427513861799123,0.3657425108317547,0.15151093794764262,0.38422624276976897,4.150736811855899,0.033387810723112504,17033519000.0,-inf,0.8577902015057168,0.1263779812091245,2853512069.474598,32637620000.0,0.08743015175354692,32637620000.0,0.114297427324664,0.07187959783832278,0.45634763335413536,7.292872251553179,-184.56648727557956,8.354024118676195,0.3056174492132011,0.3056174492132011,0.048957023692719905,0.16867060159411135,0.048957023692719905,0.10048310813140438,0.10048310813140438,0.07686308955705601,0.1263779812091245,0.1084057939672606,0.17477022231503844,0.0,0.0,0.17299916001806673,0.21151363948704074,0.4215156696065316,0.02066815089333738,-0.0024725378918479084,1.21507106266751,-0.32346922478562656,-0.1509351822165797
2020,9873240000,4922938000.0,4950302000,0.5014,0.0,3181552000,1310840000.0,4492392000,9415330000,0.0,205266000.0,-40673000000.0,-41206788000.0,-4.1736,-544016000,-0.0551,-195038000,-739054000,-0.0749,-134482000,-604572000,-0.0612,-1.04,-1.04,578949000,578949000,3328928000.0,0.0,3328928000.0,1545293000.0,629401000.0,358546000.0,5862168000.0,28598627000.0,0.0,0.0,0.0,0.0,2127000.0,1341679000.0,29942433000.0,0.0,35804601000.0,1681193000.0,1076143000.0,205754000.0,0.0,702768000.0,3460104000.0,5035351000.0,0.0,4859327000.0,2147932000.0,12042610000.0,0.0,295089000.0,15502714000.0,0.0,205837000.0,14169969000.0,-12328000.0,5938409000.0,20301887000.0,35804601000.0,0.0,35804601000.0,-604572000,-40673000000.0,-186390000,146396000.0,1615713000.0,466523000.0,122647000.0,-795267000.0,2402064000.0,44709636000,5007783000,-3464700000,0.0,0.0,0.0,117194000,-3347506000,-1019444000.0,206000000.0,-16130000.0,-820823000.0,1291372000,-359025000,-296000.0,1300956000.0,3328928000.0,2027972000,1543083000,47.665,47.195,43.655,104096650.0,1.413,8.428249999999998,52.08325,0.181965052621324,0.0,-205266000.0,1375168238.4913688,35804601000.0,42441750000.0,-533788000.0,-39466821000.0,20301887000.0,20301887000.0,20301887000.0,0.156289424748107,0.6426985666733059,0.0,0.13276695390773444,-0.020790135760905236,-4.119519023137288,-0.05406411674384498,4.298664875967767,-3.997352540807273,-8.257830652039646,0.45500686704668375,17.05373012130602,-0.9396613518634629,2.6653176704683834,-5.984464952871496,35.06679690266328,-1.4177811862530205,6111494000.0,0.30103083521251006,0.5446995448248825,3328928000.0,0.5446995448248825,2782566000.0,2782566000.0,2402064000.0,1.6942172836423415,0.8272598164679443,0.567866359340094,0.09297486655416157,0.1704326302279192,0.09663852978001347,-2.600469634523009,-11.16902786737046,0.9620890007930397,0.06708813763907047,0.3363425275986178,0.17069018587862492,0.07771531932446335,0.30103083521251006,0.7636095107809436,0.13705947629400164,0.5670189426213686,1.7636095107809437,0.7636095107809436,-0.06752688416287142,0.5446995448248825,-2.5458007546291572,0.2894851081711829,-0.3762174814499009,0.0335868774476421,9406717000.0,inf,65.28059685198785,-0.029779103784786112,-445024099.9331578,32344497000.0,-0.013758881454646142,32344497000.0,-0.016503209185785142,-1.2202020331310146,0.27575338711357233,7.82162405207491,21.163458178910794,2.9658917225004564,0.1382588232166028,0.1382588232166028,0.042516296929625115,1.3121783900364874,0.042516296929625115,-0.014908363313418854,-0.014908363313418854,-0.012429243379451647,-0.029779103784786112,-1.943997668788128,-0.04266572495677302,0.0,0.0,0.09676689317107598,0.1211491726508409,0.39575832726078974,0.017578774303336042,0.01302969414461566,-0.35769271484620524,-0.6549829140752637,0.024527342436882
2021,19669000000,5345000000.0,14324000000,0.7283,0.0,4684000000,2027000000.0,6711000000,12056000000,0.0,178000000.0,3651000000.0,9762000000.0,0.4963,6102000000,0.3102,-169000000,5933000000,0.3016,1269000000,4664000000,0.2371,8.03,7.99,581000000,584000000,5209000000.0,0.0,5209000000.0,2335000000.0,584000000.0,456000000.0,8584000000.0,28426000000.0,0.0,0.0,0.0,0.0,11000000.0,1215000000.0,29652000000.0,0.0,38236000000.0,2242000000.0,277000000.0,518000000.0,0.0,1523000000.0,4042000000.0,5630000000.0,0.0,4749000000.0,1635000000.0,12014000000.0,0.0,1048000000.0,16056000000.0,0.0,206000000.0,15919000000.0,-12000000.0,6067000000.0,22180000000.0,38236000000.0,0.0,38236000000.0,4664000000,0.0,-122000000,152000000.0,-518000000.0,-821000000.0,-13000000.0,456000000.0,-200000000.0,4615000000,8791000000,-3850000000,0.0,0.0,0.0,431000000,-3419000000,-787000000.0,0.0,-41000000.0,-2684000000.0,19000000,-3493000000,1000000.0,1880000000.0,5209000000.0,3329000000,4941000000,73.725,76.955,72.84,92147450.0,4.613,13.041249999999998,85.88125,0.21388842069779201,0.0,-178000000.0,4801072138.884207,38236000000.0,5989000000.0,6111000000.0,7966000000.0,22180000000.0,22180000000.0,22180000000.0,0.25120748385784736,0.32700363027087404,0.0,0.10305556967817378,-0.00904977375565611,0.18562204484213737,0.31069195180232856,0.3044892978799126,0.40500279627840763,1.0998033431661751,0.3411968071584727,33.85370051635112,10.502581755593804,8.504302925989673,-6.626506024096385,38.17555938037866,-4.619621342512909,5907000000.0,0.26632100991884583,0.8818351108853902,5209000000.0,0.8818351108853902,698000000.0,698000000.0,4542000000.0,2.1237011380504702,1.491835724888669,0.6068266542404473,0.13623286954702374,0.18223624887285844,0.10571189454963908,34.331460674157306,2.6348342404750125,1.288718456209797,0.11878857621090072,0.31420650695679464,0.154487917146145,0.018255047599121246,0.26632100991884583,0.7238954012623986,0.031469792605951306,0.5800815984935662,1.7238954012623986,0.7238954012623986,0.07150174144642492,0.8818351108853902,0.4961385151968112,0.7398921832884097,1.6447449293177627,0.030133739630946337,20490000000.0,-inf,1.7079759862778732,0.2102795311091073,4796852856.902073,34194000000.0,0.14028346659946403,34194000000.0,0.17871556413405862,0.23296484763408784,0.5144105031907104,9.152397260273972,-23.957369062119366,3.775964676521405,0.37462077623182344,0.37462077623182344,0.14040685906545614,0.17514768672866585,0.14040685906545614,0.15982320326393976,0.15982320326393976,0.12545383557124368,0.2102795311091073,0.35915238954012624,0.2929832275896727,0.0,0.0,0.10069044879171461,0.1354393864771688,0.41633539073124803,0.015273564180353593,-0.02147191128779161,1.5754716981132075,-0.5349119611414693,-0.2707437000614628
