,Revenue,COGS,Gross Profit,Gross Profit Ratio,Research and Development Exp.,"Selling, General and Administrative Exp.",Other Expenses,Operating Expenses,COGS and Expenses,Interest Income,Interest Expense (Gain),Depreciation and Amortization,EBITDA,EBITDA Ratio,Operating Income,Operating Income Ratio,Total Other Income Expenses (Gains),Income Before Tax,Income Before Tax Ratio,Income Tax expense (Gain),Net Income,Net Income Ratio,EPS,EPS Diluted,Weighted Average Shares Outstanding,Weighted Average Shares Outstanding Diluted,Cash and Cash Equivalents,Short-Term Investments,Cash and Short-Term Investments,Net Receivables,Inventory (Balance),Other Current Assets,Total Current Assets,PP&E,Goodwill,Intangible Assets,Goodwill and Intangible Assets,Investments,Tax Assets,Other Non-Current Assets,Total Non-Current Assets,Other Assets,Total Assets,Accounts Payable (Balance),Short-Term Debt,Tax Payable,Deferred Revenue (Current),Other Current Liabilities,Total Current Liabilities,Long-Term Debt,Deferred Revenue (Non-Current),Deferred Tax Liabilities,Other Non-Current Liabilities,Total Non-Current Liabilities,Other Liabilities,Capital Lease Obligations,Total Liabilities,Preferred Stock,Common Stock,Retained Earnings,Other Comprehensive Income/Loss,Other Total Stockholders Equity,Total Stockholders Equity,Total Liabilities And Stockholders Equity,Minority Interest,Total Liabilities & Equity,Net Income (Cash Flow),Depreciation and Amortization (Cash Flow),Deferred Income Tax,Stock Based Compensation,Change in Working Capital,Accounts Receivable,Inventory (Cash Flow),Accounts Payable (Cash Flow),Other Working Capital,Other Non-Cash Items,Cash Provided by Operating Activities,CAPEX,Acquisitions Net,Purchases of Investments,Sales/Maturities of Investments,Other Investing Activities,Cash Used for Investing Activites,Debt Repayment,Common Stock Issued,Common Stock Repurchased,Dividends Paid,Other Financing Activites,Cash Used/Provided by Financing Activities,Effect of Forex Changes on Cash,Net Change In Cash,Cash at the End of Period,Cash at the Beginning of Period,Free Cash Flow,Open,Close,Adj Close,Volume,Dividend,Dividend Cum,Price with cum Dividends,Tax Rate,Deferred Revenue,Net Interest Income,Free Cash Flow to the Firm,Tangible Assets,Adjusted Operating Income,EBIT,Operating Cash Flow,Common Book Value,Tangible Book Value,Common Tangible Book Value,Free Cash Flow Ratio,"Selling, General and Administrative Exp. Ratio",Research and Development Exp. Ratio,Other Expenses Ratio,Net Interest IncomeRatio,Depreciation and Amortization Ratio,EBIT Margin,Adjusted Operating Margin,Operating Cash Flow Margin,Cost-to-Income Ratio,Operating Expense Ratio,Revenue per share,Operating Income per share,FCF per share,CAPEX per share,Book value per share,Dividends per share,Total Debt,Financial leverage,Cash to Debt Ratio,Cash & Investments,Cash & Investments to Debt Ratio,Net Debt,Net Debt w/Investments,Working Capital,Current Ratio,Quick Ratio,Cash to Current Assets,Cash to Assets,Debt to Equity,Debt to Assets,Interest Coverage,Current Liability Coverage Ratio,Cash Ratio,Net Working Capital to Assets,Long Term Debt Ratio,Total Debt/ Assets,Net Debt/ Assets,Total Debt/ Equity,Total Liabilities/ Equity,Net Debt/ Equity,Equity Ratio,Equity Multiplier,Debt/ Tangible Book Value,Net Debt/ EBITDA,Cash to Debt,Cash Flow Coverage Ratio,Free Cash Flow/ Long Term Debt,Debt Leverage Ratio,Interest Expense to Debt Ratio,Cash Sales,Cash Revenue Adjustment,CFO/ Net Income,Return on Equity,NOPAT,Invested Capital,Return on Invested Capital,Capital Employed,ROCE,CFROI,Asset Turnover Ratio,Inventory Turnover,Receivables Turnover,Cash Turnover Ratio,Gross Profitability Ratio,Tangible Gross Profitability Ratio,Cash Return on Invested Capital,Adjusted Return on Capital Employed,Cash Return on Capital Employed,EBIT Return on Assets,EBIT Return on Tangible Assets,Return on Assets,Return on Tangible Equity,Cash Return on Equity,Return on Retained Earnings,R&D / Assets,R&D / Book,CapEx / Assets,CapEx / Fixed Assets,Retained Earnings / Total Assets,Inventory / Assets,Accounts Receivable / Assets,Plowback Ratio,Dividend & Repurchase / FCF,Dividend & Repurchase / EBITDA
1994,6331200000,3865500000,2465700000,0.3895,218100000.0,919000000,317500000,1454600000,5320100000,0.0,0.0,335200000.0,1175000000.0,0.1856,1011100000,0.1597,-171300000,839800000,0.1326,325200000,514600000,0.0813,1.22,1.22,423800000,428800000,62100000.0,0.0,62100000.0,1228900000.0,686400000.0,190800000.0,2168200000.0,2742300000.0,0.0,0.0,0.0,0.0,0.0,983400000.0,3725700000.0,0.0,5893900000.0,517800000.0,370700000.0,0.0,0.0,536000000.0,1424500000.0,745000000.0,0.0,302700000.0,794400000.0,1842100000.0,0.0,0.0,3266600000.0,0.0,484300000.0,3717100000.0,-3420400000.0,1776000000.0,2557000000.0,5823600000.0,70300000.0,5893900000.0,514600000.0,335200000.0,0.0,0.0,743700000.0,0.0,-25600000.0,0.0,743700000.0,-902400000.0,691100000.0,-321800000.0,-33900000.0,0.0,0.0,110300000.0,-245400000.0,0.0,19400000.0,-280000000.0,-237800000.0,800000.0,-497600000.0,2100000.0,-49800000.0,62100000.0,111900000.0,369300000.0,19.065,19.065,9.37,13628400.0,0.56,0.56,9.93,0.3872350559657061,0.0,0.0,369300000.0,5893900000.0,1211500000.0,839800000.0,1764800000.0,2557000000.0,2557000000.0,2557000000.0,0.05833017437452616,0.37271363101756094,0.03444844579226687,0.05014847106393733,0.0,0.05294414960828911,0.1326446803133687,0.19135392974475612,0.2787465251453121,1.4386311937493819,0.22975107404599443,14.939122227465786,2.3857951864086835,0.8714016045304389,-0.75932043416706,6.0335063709296834,-0.561113732892874,1115700000.0,0.43633163863903013,0.05566012368916375,62100000.0,0.05566012368916375,1053600000.0,1053600000.0,743700000.0,1.5220779220779221,0.0435942435942436,0.028641269255603726,0.010536317209318108,0.5570981619084865,0.241690561427917,99.0,1.4058266058266058,0.0435942435942436,0.1261813060961333,0.312543477154346,0.18929740918576834,0.17876109197645024,0.43633163863903013,1.277512710207274,0.4120453656628862,0.43383837526934627,2.305005866249511,1.277512710207274,0.8966808510638298,0.05566012368916375,0.5402559235902773,0.4957046979865772,2.7800851063829786,0.0,6331200000.0,,3.4294597745821997,0.20125146656237777,619566634.9130746,4399100000.0,0.14083940690438376,4469400000.0,0.1878999418266434,0.3948628451246252,1.074195354519079,5.631555944055944,inf,101.95169082125604,0.4183477833013794,0.4183477833013794,0.0839489895660476,0.27106546740054593,0.08262854074372399,0.142486299394289,0.142486299394289,0.10511997741954811,0.20125146656237777,0.6901838091513492,0.1384412579699228,0.03700436044045539,0.085295267892061,0.0545988225114101,0.1173467527258141,0.6306689967593614,0.11645939021700402,0.0,1.4621064904780412,0.06173842404549147,0.019404255319148935
1995,7057700000,4212100000,2845600000,0.4032,236400000.0,977100000,331500000,1545000000,5757100000,0.0,0.0,351600000.0,1598900000.0,0.2265,1300600000,0.1843,-53300000,1247300000,0.1767,479700000,767600000,0.1088,1.9,1.9,404000000,412800000,105600000.0,0.0,105600000.0,1245100000.0,737500000.0,187300000.0,2275500000.0,2834800000.0,0.0,0.0,0.0,0.0,0.0,1084000000.0,3918800000.0,0.0,6194300000.0,583400000.0,485300000.0,0.0,0.0,560700000.0,1629400000.0,706800000.0,0.0,354900000.0,865800000.0,1927500000.0,0.0,0.0,3556900000.0,0.0,484300000.0,4249000000.0,-3629200000.0,1465100000.0,2569200000.0,6126100000.0,68200000.0,6194300000.0,767600000.0,351600000.0,0.0,0.0,-97600000.0,0.0,-47100000.0,0.0,646100000.0,50400000.0,1072000000.0,-447800000.0,-6600000.0,0.0,0.0,178900000.0,-275500000.0,0.0,7400000.0,-588000000.0,-238900000.0,66600000.0,-752900000.0,-100000.0,43500000.0,105600000.0,62100000.0,624200000.0,20.94,21.315,10.935,13799600.0,0.59,1.15,12.085,0.38459071594644434,0.0,0.0,624200000.0,6194300000.0,1516900000.0,1247300000.0,1074900000.0,2569200000.0,2569200000.0,2569200000.0,0.08844241041699137,0.3433722237840877,0.03349533134023832,0.04696997605452201,0.0,0.04981792935375547,0.17672896269322866,0.21492837609986257,0.15230174136049987,1.1879132707980933,0.21890984315003473,17.469554455445543,3.2193069306930693,1.545049504950495,-1.1084158415841585,6.359405940594059,-0.5913366336633663,1192100000.0,0.46399657480927914,0.0885831725526382,105600000.0,0.0885831725526382,1086500000.0,1086500000.0,646100000.0,1.3965263287099545,0.06480913219590033,0.046407382992748845,0.01704793116252038,0.6342052000622762,0.26304828632775296,99.0,0.806309070823616,0.06480913219590033,0.10430557125098881,0.31117317533861777,0.1924511244208385,0.17540319325831813,0.46399657480927914,1.384438735793243,0.4228942861591157,0.41476841612450155,2.410983963879807,1.384438735793243,0.6795296766526987,0.0885831725526382,0.30220135511259805,0.8831352574985851,2.2245919069360185,0.0,7057700000.0,,1.4003387180823346,0.2987700451502413,800401314.8400545,4496700000.0,0.17799749034626605,4564900000.0,0.2732370917216149,0.23547065653135885,1.1393862099026524,5.7113220338983055,inf,66.8342803030303,0.4593900844324621,0.4593900844324621,0.13881290724308937,0.3322964358474446,0.13673903042782976,0.20136254298306508,0.20136254298306508,0.1292157814184096,0.2987700451502413,0.41837926202709014,0.18065427159331607,0.03816411862518767,0.09201307800093414,0.0722922686986423,0.15796528855651193,0.6859532150525484,0.11906107227612482,0.0,1.3112298071912454,0.5474206984940724,0.2137094252298455
1996,7218100000,4340300000,2877800000,0.3987,239100000.0,1004300000,340200000,1583600000,5923900000,0.0,0.0,362600000.0,1577600000.0,0.2186,1294200000,0.1793,-79200000,1215000000,0.1683,471000000,744000000,0.1031,1.98,1.98,375600000,382400000,69600000.0,0.0,69600000.0,1225600000.0,796500000.0,204700000.0,2296400000.0,2913500000.0,0.0,0.0,0.0,0.0,0.0,1231500000.0,4145000000.0,0.0,6441400000.0,601900000.0,648300000.0,0.0,0.0,518700000.0,1768900000.0,806100000.0,0.0,419100000.0,888500000.0,2113700000.0,0.0,0.0,3882600000.0,0.0,484300000.0,4759800000.0,-3774700000.0,1013200000.0,2482600000.0,6365200000.0,76200000.0,6441400000.0,744000000.0,362600000.0,0.0,0.0,-118600000.0,0.0,-56100000.0,0.0,527500000.0,19900000.0,1007900000.0,-475900000.0,-12600000.0,0.0,0.0,20100000.0,-468400000.0,0.0,26800000.0,-635100000.0,-236600000.0,269800000.0,-575100000.0,-400000.0,-36000000.0,69600000.0,105600000.0,532000000.0,24.5,25.0,13.08,12851500.0,0.95,2.1,15.18,0.38765432098765434,0.0,0.0,532000000.0,6441400000.0,1510900000.0,1215000000.0,1067200000.0,2482600000.0,2482600000.0,2482600000.0,0.0737036062121611,0.3489818611439294,0.033125060611518264,0.04713151660409249,0.0,0.05023482633934138,0.16832684501461603,0.20932101245480111,0.1478505423865006,1.223613042806367,0.21939291503304192,19.21751863684771,3.4456869009584663,1.4164004259850904,-1.2670394036208732,6.609691160809372,-0.6299254526091587,1454400000.0,0.5858374285023765,0.04785478547854786,69600000.0,0.04785478547854786,1384800000.0,1384800000.0,527500000.0,1.2982079258296115,0.03934648651704449,0.030308308657028393,0.010805104480392461,0.7125191331668412,0.27461421430123883,99.0,0.7370682344960144,0.03934648651704449,0.0818921352501009,0.32814295029030954,0.22578942465923557,0.2149843201788431,0.5858374285023765,1.56392491742528,0.5578023040360912,0.3854131089514702,2.594618545073713,1.56392491742528,0.8777890466531441,0.04785478547854786,0.2748673569257714,0.6599677459372286,2.461080121703854,0.0,7218100000.0,,1.4344086021505376,0.29968581326029164,792497777.7777777,4596300000.0,0.17242081190909594,4672500000.0,0.26003210272873195,0.22840021401819155,1.1205793771540349,5.4492153170119275,inf,103.70833333333333,0.4467662309435837,0.4467662309435837,0.11574527337206013,0.32336008560727664,0.11385767790262172,0.1886235911447822,0.1886235911447822,0.12303191507712262,0.29968581326029164,0.42987190848304196,0.1563090886171688,0.03711925978824479,0.09631031982598888,0.07388145434222373,0.1633430581774498,0.7389387400254603,0.12365324308380166,0.0,1.3180107526881721,0.6986842105263158,0.23561105476673427
1997,7379000000,4397000000,2982000000,0.4041,250000000.0,1068000000,348000000,1666000000,6063000000,0.0,0.0,373000000.0,1522000000.0,0.2063,1316000000,0.1783,-167000000,1149000000,0.1557,435000000,714000000,0.0968,1.99,1.97,359697733,362436548,129000000.0,0.0,129000000.0,1353000000.0,863000000.0,239000000.0,2584000000.0,2855000000.0,0.0,0.0,0.0,0.0,0.0,1429000000.0,4284000000.0,0.0,6868000000.0,646000000.0,444000000.0,0.0,0.0,572000000.0,1662000000.0,1216000000.0,0.0,406000000.0,993000000.0,2615000000.0,0.0,0.0,4277000000.0,0.0,484000000.0,5239000000.0,-3903000000.0,689000000.0,2509000000.0,6786000000.0,82000000.0,6868000000.0,714000000.0,373000000.0,0.0,0.0,394500000.0,0.0,-60000000.0,0.0,922000000.0,-474500000.0,1007000000.0,-466000000.0,-363000000.0,0.0,0.0,246000000.0,-583000000.0,0.0,14000000.0,-343000000.0,-239000000.0,208000000.0,-360000000.0,-5000000.0,59000000.0,129000000.0,70000000.0,541000000.0,28.75,28.765,15.695,11610100.0,0.665,2.765,18.46,0.3785900783289817,0.0,0.0,541000000.0,6868000000.0,1541000000.0,1149000000.0,1648500000.0,2509000000.0,2509000000.0,2509000000.0,0.07331616750237159,0.358148893360161,0.033879929529746576,0.047160861905407234,0.0,0.0505488548583819,0.15571215611871528,0.2088358856213579,0.22340425531914893,1.2659574468085106,0.22577585038623119,20.514446778567827,3.6586274509547714,1.504040616235966,-1.2955322128760818,6.975301120399332,-0.6644467787068316,1660000000.0,0.6616181745715425,0.07771084337349397,129000000.0,0.07771084337349397,1531000000.0,1531000000.0,922000000.0,1.5547533092659447,0.0776173285198556,0.04992260061919505,0.018782760629004077,0.6624153049023516,0.24199184624344788,99.0,1.1356799037304453,0.0776173285198556,0.13424577751892836,0.38075131042516014,0.2417006406523005,0.22291788002329646,0.6616181745715425,1.7046632124352332,0.6102032682343563,0.3653174140943506,2.737345555998406,1.7046632124352332,1.0059132720105124,0.07771084337349397,0.38543371522094927,0.4449013157894737,2.8101182654402104,0.0,7379000000.0,,2.3088235294117645,0.2845755280988442,817775456.91906,5124000000.0,0.15959708370785713,5206000000.0,0.22070687668075298,0.3166538609296965,1.0744030285381478,5.095017381228273,inf,57.201550387596896,0.4341875364006989,0.4341875364006989,0.10558157689305231,0.29600461006530926,0.10391855551286977,0.1672976121141526,0.1672976121141526,0.11907039267895457,0.2845755280988442,0.6570346751693902,0.13628555067761022,0.03640069889341875,0.0996412913511359,0.06785090273733256,0.16322241681260946,0.7628130460104834,0.12565521258008153,0.0,1.334733893557423,0.16635859519408502,0.05913272010512484
1998,7510000000,4476000000,3034000000,0.404,271000000.0,1133000000,354000000,1758000000,6234000000,0.0,0.0,383000000.0,1650000000.0,0.2197,1276000000,0.1699,-9000000,1267000000,0.1687,466000000,801000000,0.1067,2.26,2.26,354424779,358000000,128000000.0,0.0,128000000.0,1366000000.0,917000000.0,249000000.0,2660000000.0,2905000000.0,0.0,576000000.0,576000000.0,0.0,0.0,1246000000.0,4727000000.0,0.0,7387000000.0,630000000.0,637000000.0,0.0,0.0,645000000.0,1912000000.0,1047000000.0,0.0,440000000.0,1021000000.0,2508000000.0,0.0,0.0,4420000000.0,0.0,484000000.0,5791000000.0,-3834000000.0,439000000.0,2880000000.0,7300000000.0,87000000.0,7387000000.0,801000000.0,383000000.0,0.0,0.0,-174000000.0,0.0,-73000000.0,0.0,748000000.0,-68000000.0,942000000.0,-487000000.0,-390000000.0,0.0,0.0,296000000.0,-581000000.0,0.0,22000000.0,-217000000.0,-252000000.0,86000000.0,-361000000.0,-1000000.0,-1000000.0,128000000.0,129000000.0,455000000.0,31.095,31.14,17.345,14495100.0,0.71,3.475,20.82,0.36779794790844517,0.0,0.0,455000000.0,6811000000.0,1518000000.0,1267000000.0,1019000000.0,2880000000.0,2304000000.0,2304000000.0,0.06058588548601864,0.3734344100197759,0.036085219707057255,0.047137150466045274,0.0,0.05099866844207723,0.16870838881491346,0.20213049267643143,0.13568575233022637,1.3777429467084639,0.2340878828229028,21.1892634064392,3.600199747885009,1.2837702862756106,-1.3740574272884007,8.125842691151117,-0.7110112354757228,1684000000.0,0.5847222222222223,0.07600950118764846,128000000.0,0.07600950118764846,1556000000.0,1556000000.0,748000000.0,1.391213389121339,0.06694560669456066,0.0481203007518797,0.017327737917963992,0.6638888888888889,0.25883308514958714,99.0,0.6647489539748954,0.06694560669456066,0.10125896845810207,0.33951536483010697,0.22796805198321377,0.21064031406524977,0.5847222222222223,1.5347222222222223,0.5402777777777777,0.3898741031541898,2.5649305555555557,1.9184027777777777,0.943030303030303,0.07600950118764846,0.23054298642533938,0.43457497612225404,2.6787878787878787,0.0,7510000000.0,,1.2721598002496879,0.278125,806689818.4688239,5388000000.0,0.14971971389547586,5475000000.0,0.23141552511415525,0.18611872146118721,1.0166508731555435,4.88113413304253,inf,58.671875,0.4107215378367402,0.44545588019380417,0.08444691907943579,0.2772602739726027,0.08310502283105023,0.1715175307973467,0.18602261048304214,0.10920398246498225,0.34765625,0.35381944444444446,0.13831807977896737,0.036686070123189383,0.09409722222222222,0.06592662785975362,0.1676419965576592,0.7839447678353865,0.1241369974279139,0.0,1.3146067415730338,-0.12527472527472527,-0.034545454545454546
1999,7757000000,4719000000,3038000000,0.3916,284000000.0,1230000000,415000000,1929000000,6648000000,0.0,0.0,419000000.0,1364000000.0,0.1758,1109000000,0.143,-164000000,945000000,0.1218,377000000,568000000,0.0732,1.64,1.61,347400612,351702786,158000000.0,0.0,158000000.0,1594000000.0,1016000000.0,294000000.0,3062000000.0,2933000000.0,0.0,1662000000.0,1662000000.0,0.0,0.0,1257000000.0,5852000000.0,0.0,8914000000.0,755000000.0,954000000.0,0.0,0.0,675000000.0,2384000000.0,1826000000.0,0.0,520000000.0,980000000.0,3326000000.0,0.0,0.0,5710000000.0,0.0,484000000.0,6098000000.0,-3926000000.0,450000000.0,3106000000.0,8816000000.0,98000000.0,8914000000.0,568000000.0,419000000.0,0.0,0.0,-70000000.0,0.0,-7000000.0,0.0,678000000.0,-15000000.0,902000000.0,-490000000.0,-1343000000.0,0.0,0.0,189000000.0,-1644000000.0,0.0,9000000.0,-82000000.0,-264000000.0,1110000000.0,773000000.0,-1000000.0,30000000.0,158000000.0,128000000.0,412000000.0,29.685,29.905,17.03,16231600.0,0.76,4.234999999999999,21.265,0.39894179894179893,0.0,0.0,412000000.0,7252000000.0,1389000000.0,945000000.0,1081000000.0,3106000000.0,1444000000.0,1444000000.0,0.053113317003996394,0.4048716260697828,0.03661209230372567,0.05350006445790899,0.0,0.05401572772979245,0.12182544798246744,0.17906407116153153,0.1393579992265051,1.739404869251578,0.24867861286579862,22.328688355908827,3.192279926092934,1.1859507029308285,-1.4104753505730727,8.94068660995911,-0.7599295766352882,2780000000.0,0.8950418544752092,0.05683453237410072,158000000.0,0.05683453237410072,2622000000.0,2622000000.0,678000000.0,1.2843959731543624,0.0662751677852349,0.051600261267145654,0.017724927080996187,0.7675466838377334,0.2674444693740184,99.0,0.5641778523489933,0.0662751677852349,0.07606013013237604,0.3731209333632488,0.3118689701593,0.2941440430783038,0.8950418544752092,1.8383773341918868,0.8441725692208628,0.3484406551492035,2.869929169349646,3.9542936288088644,1.9222873900293256,0.05683453237410072,0.1893169877408056,0.22562979189485213,4.186217008797654,0.0,7757000000.0,,1.903169014084507,0.1828718609143593,666573544.973545,6432000000.0,0.10363394666877254,6530000000.0,0.1447166921898928,0.1655436447166922,0.8702041732106798,4.644685039370079,inf,49.09493670886076,0.34081220551940766,0.4189189189189189,0.0640547263681592,0.2127105666156202,0.06309341500765697,0.10601301323760377,0.1303088803088803,0.07477827518213429,0.39335180055401664,0.3480360592401803,0.0931452935388652,0.03185999551267669,0.09143593045717965,0.0549697105676464,0.16706443914081145,0.6840924388602199,0.11397801211577294,0.0,1.4647887323943662,-0.46359223300970875,-0.14002932551319647
2000,8629000000,5334000000,3295000000,0.3819,282000000.0,1364000000,447000000,2093000000,7427000000,0.0,0.0,447000000.0,1436000000.0,0.1664,1202000000,0.1393,-213000000,989000000,0.1146,369000000,620000000,0.0719,1.8,1.78,344444444,347338936,111000000.0,0.0,111000000.0,1563000000.0,1121000000.0,298000000.0,3093000000.0,2941000000.0,0.0,1648000000.0,1648000000.0,0.0,0.0,1443000000.0,6032000000.0,0.0,9125000000.0,764000000.0,1161000000.0,0.0,0.0,618000000.0,2543000000.0,1800000000.0,0.0,543000000.0,1014000000.0,3357000000.0,0.0,0.0,5900000000.0,0.0,484000000.0,6444000000.0,-4148000000.0,317000000.0,3097000000.0,8997000000.0,128000000.0,9125000000.0,620000000.0,447000000.0,0.0,0.0,-128000000.0,0.0,-92000000.0,0.0,550000000.0,-69000000.0,870000000.0,-561000000.0,-115000000.0,0.0,0.0,40000000.0,-636000000.0,0.0,4000000.0,-247000000.0,-276000000.0,241000000.0,-278000000.0,-3000000.0,-47000000.0,111000000.0,158000000.0,309000000.0,23.435,22.735,13.49,24085800.0,0.8,5.034999999999999,18.525,0.3731041456016178,0.0,0.0,309000000.0,7477000000.0,1484000000.0,989000000.0,1152000000.0,3097000000.0,1449000000.0,1449000000.0,0.03580947966160621,0.4139605462822458,0.032680496001854215,0.051802062811449764,0.0,0.051802062811449764,0.11461351257387878,0.17197821300266544,0.1335033028160853,1.7412645590682196,0.2425541777726272,25.051935516196046,3.4896774238576485,0.8970967753510927,-1.6287096795209157,8.99129033418231,-0.8012903236145682,2961000000.0,0.9560865353567969,0.037487335359675786,111000000.0,0.037487335359675786,2850000000.0,2850000000.0,550000000.0,1.2162799842705465,0.04364923318914668,0.03588748787584869,0.012164383561643836,0.8211172102034227,0.2786849315068493,99.0,0.5615414864333464,0.04364923318914668,0.06027397260273973,0.3678904109589041,0.3244931506849315,0.31232876712328766,0.9560865353567969,1.905069422021311,0.9202453987730062,0.3393972602739726,2.946399741685502,4.071773636991028,1.9846796657381616,0.037487335359675786,0.1952542372881356,0.17166666666666666,4.108635097493036,0.0,8629000000.0,,1.8580645161290323,0.2001937358734259,753528816.9868555,6454000000.0,0.11675376773889921,6582000000.0,0.15025828015800669,0.17502278942570648,0.9456438356164384,4.758251561106155,inf,77.73873873873873,0.3610958904109589,0.4406847666176274,0.04787728540440037,0.22546338498936494,0.04694621695533273,0.10838356164383561,0.1322723017252909,0.0825785004917102,0.4278812974465148,0.37197287697772036,0.09621353196772191,0.030904109589041096,0.09105586051017113,0.06147945205479452,0.1907514450867052,0.7061917808219178,0.12284931506849316,0.0,1.4451612903225806,-0.10679611650485436,-0.02298050139275766
2001,8169000000,5137000000,3032000000,0.3712,266000000.0,1395000000,447000000,2108000000,7245000000,0.0,0.0,447000000.0,1081000000.0,0.1323,924000000,0.1131,-290000000,634000000,0.0776,247000000,387000000,0.0474,1.15,1.15,336521739,337991266,108000000.0,0.0,108000000.0,1416000000.0,904000000.0,275000000.0,2703000000.0,2752000000.0,0.0,1542000000.0,1542000000.0,0.0,0.0,1455000000.0,5749000000.0,0.0,8452000000.0,610000000.0,696000000.0,0.0,0.0,649000000.0,1955000000.0,1689000000.0,0.0,552000000.0,1054000000.0,3295000000.0,0.0,0.0,5250000000.0,0.0,484000000.0,6551000000.0,-4401000000.0,446000000.0,3080000000.0,8330000000.0,122000000.0,8452000000.0,387000000.0,447000000.0,0.0,0.0,198000000.0,0.0,187000000.0,0.0,748000000.0,28000000.0,1060000000.0,-291000000.0,-10000000.0,0.0,0.0,56000000.0,-245000000.0,0.0,13000000.0,-5000000.0,-283000000.0,-541000000.0,-816000000.0,-2000000.0,-3000000.0,108000000.0,111000000.0,769000000.0,25.885,26.07,15.905,31261500.0,0.84,5.874999999999999,21.78,0.38958990536277605,0.0,0.0,769000000.0,6910000000.0,1190000000.0,634000000.0,1322000000.0,3080000000.0,1538000000.0,1538000000.0,0.09413636920063655,0.46009234828496043,0.032562125107112254,0.05471905986044803,0.0,0.05471905986044803,0.07761047863875628,0.1456726649528706,0.16183131350226465,2.2813852813852815,0.2580487207736565,24.274806210959227,2.745736435172766,2.285142119748763,-0.8647286825057088,9.15245478390922,-0.8409560726773732,2385000000.0,0.7743506493506493,0.045283018867924525,108000000.0,0.045283018867924525,2277000000.0,2277000000.0,748000000.0,1.382608695652174,0.05524296675191816,0.03995560488346282,0.012778040700425935,0.6347402597402597,0.23130619971604355,99.0,0.8209718670076727,0.05524296675191816,0.08849976336961665,0.3898485565546616,0.28218173213440606,0.26940369143398013,0.7743506493506493,1.7045454545454546,0.7392857142857143,0.36441079034548035,2.744155844155844,3.413524057217165,2.106382978723404,0.045283018867924525,0.2518095238095238,0.4552989934872706,4.856614246068455,0.0,8169000000.0,,3.4160206718346253,0.12564935064935065,564018927.4447949,6375000000.0,0.08847355724624234,6497000000.0,0.0975835000769586,0.20347852855163923,0.9665168007572172,5.682522123893805,inf,75.63888888888889,0.35873166114529104,0.43878437047756874,0.12062745098039215,0.18316145913498538,0.11836232107126365,0.07501183151916706,0.09175108538350217,0.06673200750648307,0.2516254876462939,0.4292207792207792,0.05907495038925355,0.031471840984382396,0.08636363636363636,0.03442972077614766,0.10574127906976744,0.7750828206341694,0.1069569332702319,0.0,1.731266149870801,-0.3784135240572172,-0.26919518963922295
2002,8067000000,5066000000,3001000000,0.372,273000000.0,1419000000,398000000,2090000000,7156000000,0.0,0.0,398000000.0,370000000.0,0.0399,911000000,0.1129,-939000000,-28000000,-0.0035,-7000000,-69000000,-0.0086,-0.2,-0.2,336585366,336585366,117000000.0,0.0,117000000.0,1486000000.0,942000000.0,400000000.0,2945000000.0,2632000000.0,0.0,1561000000.0,1561000000.0,0.0,0.0,725000000.0,4918000000.0,0.0,7863000000.0,1378000000.0,352000000.0,0.0,0.0,190000000.0,1920000000.0,1689000000.0,0.0,64000000.0,1909000000.0,3662000000.0,0.0,10000000.0,5582000000.0,0.0,484000000.0,6197000000.0,-4638000000.0,107000000.0,2150000000.0,7732000000.0,131000000.0,7863000000.0,-69000000.0,398000000.0,0.0,0.0,277000000.0,0.0,-9000000.0,0.0,1025000000.0,266000000.0,872000000.0,-238000000.0,-22000000.0,0.0,0.0,48000000.0,-212000000.0,0.0,32000000.0,0.0,-287000000.0,-400000000.0,-655000000.0,4000000.0,9000000.0,117000000.0,108000000.0,634000000.0,25.94,25.915,16.07,33912400.0,0.845,6.719999999999999,22.79,0.25,0.0,0.0,634000000.0,6302000000.0,1184000000.0,-28000000.0,1593000000.0,2150000000.0,589000000.0,589000000.0,0.07859179372753192,0.4728423858713762,0.03384157679434734,0.0493368042642866,0.0,0.0493368042642866,-0.003470930953266394,0.14677079459526465,0.1974711788769059,2.2941822173435784,0.2590802032973844,23.967173902622967,2.706594201721771,1.8836231875868306,-0.7071014489679269,6.387681156643037,-0.8526811590495589,2041000000.0,0.9493023255813954,0.05732484076433121,117000000.0,0.05732484076433121,1924000000.0,1924000000.0,1025000000.0,1.5338541666666667,0.0609375,0.03972835314091681,0.014879816863792446,0.8930232558139535,0.24418161007249142,-inf,0.9791666666666666,0.0609375,0.13035736996057484,0.46572555004451227,0.2595701386239349,0.24469032176014244,0.9493023255813954,2.596279069767442,0.8948837209302326,0.2734325321124253,3.6572093023255814,9.477079796264857,5.2,0.05732484076433121,0.28538158366176997,0.3731606827545615,15.086486486486486,0.0,8067000000.0,,-23.08695652173913,-0.03209302325581395,683250000.0,5812000000.0,0.11755849965588437,5943000000.0,-0.004711425206124852,0.26804644119131754,1.0259442960702023,5.37791932059448,inf,68.94871794871794,0.3816609436601806,0.476198032370676,0.10908465244322092,0.19922598014470805,0.10668012788154131,-0.0035609818135571665,-0.004443033957473818,0.0868943151468905,-0.11714770797962648,0.7409302325581395,-0.01113441988058738,0.03471957268218237,0.12697674418604651,0.030268345415235914,0.09042553191489362,0.7881215820933486,0.1198016024418161,0.0,-3.1594202898550723,-0.5031545741324921,-0.8621621621621621
2003,8756000000,5521000000,3235000000,0.3695,290000000.0,1578000000,394000000,2262000000,7783000000,0.0,0.0,394000000.0,894000000.0,0.1349,973000000,0.1111,-473000000,500000000,0.0571,293000000,494000000,0.0564,1.46,1.45,339518900,341868512,499000000.0,0.0,499000000.0,1631000000.0,997000000.0,410000000.0,3537000000.0,2566000000.0,0.0,1652000000.0,1652000000.0,0.0,0.0,669000000.0,4887000000.0,0.0,8424000000.0,1504000000.0,327000000.0,0.0,0.0,308000000.0,2139000000.0,1339000000.0,0.0,88000000.0,1810000000.0,3237000000.0,0.0,0.0,5376000000.0,0.0,484000000.0,6399000000.0,-5054000000.0,1082000000.0,2911000000.0,8287000000.0,137000000.0,8424000000.0,494000000.0,394000000.0,0.0,0.0,373000000.0,0.0,11000000.0,0.0,1398000000.0,-138000000.0,1123000000.0,-217000000.0,-3000000.0,0.0,0.0,54000000.0,-166000000.0,0.0,86000000.0,0.0,-294000000.0,-385000000.0,-593000000.0,18000000.0,382000000.0,499000000.0,117000000.0,906000000.0,25.285,25.74,16.715,29598600.0,0.865,7.584999999999999,24.3,0.586,0.0,0.0,906000000.0,6772000000.0,1263000000.0,500000000.0,1447000000.0,2911000000.0,1259000000.0,1259000000.0,0.10347190497944267,0.48778979907264297,0.03312014618547282,0.04499771585198721,0.0,0.04499771585198721,0.05710370031978072,0.1442439470077661,0.1652581087254454,2.3247687564234325,0.25833714024668797,25.789433224483233,2.8658198409573075,2.668481784077411,-0.6391396767602628,8.573896769811636,-0.8659311749655174,1666000000.0,0.5723119203023016,0.2995198079231693,499000000.0,0.2995198079231693,1167000000.0,1167000000.0,1398000000.0,1.6535764375876578,0.23328658251519402,0.14108001130901895,0.059235517568850905,0.7347990381312264,0.2539173789173789,99.0,0.8139317438055166,0.23328658251519402,0.16595441595441596,0.38425925925925924,0.19776828110161443,0.13853276353276353,0.5723119203023016,1.846788045345242,0.4008931638612161,0.34556030389363723,2.893850910340089,4.270055599682287,1.3053691275167785,0.2995198079231693,0.26915922619047616,0.6766243465272591,6.0134228187919465,0.0,8756000000.0,,2.92914979757085,0.16970113363105463,402822000.00000006,6148000000.0,0.06552081977878986,6285000000.0,0.07955449482895784,0.23023070803500398,1.0394112060778729,5.537612838515547,inf,17.547094188376754,0.38402184235517567,0.4777023036030715,0.14736499674690956,0.20095465393794748,0.1441527446300716,0.059354226020892686,0.07383343177790903,0.04781837606837608,0.39237490071485304,0.49708004122294747,0.07719956243162994,0.03442545109211776,0.0996221229817932,0.025759734093067425,0.08456742010911925,0.7596153846153846,0.11835232668566002,0.0,1.5951417004048583,-0.4194260485651214,-0.4250559284116331
2004,9513000000,5999000000,3514000000,0.3694,303000000.0,1715000000,388000000,2406000000,8405000000,0.0,0.0,388000000.0,1451000000.0,0.1464,1108000000,0.1165,-45000000,1063000000,0.1117,322000000,683000000,0.0718,1.99,1.98,343216080,345822785,709000000.0,0.0,709000000.0,1797000000.0,1076000000.0,472000000.0,4054000000.0,2471000000.0,0.0,1713000000.0,1713000000.0,0.0,0.0,694000000.0,4878000000.0,0.0,8932000000.0,1651000000.0,166000000.0,0.0,0.0,404000000.0,2221000000.0,1184000000.0,0.0,145000000.0,1714000000.0,3043000000.0,0.0,0.0,5264000000.0,0.0,484000000.0,6776000000.0,-5384000000.0,1696000000.0,3572000000.0,8836000000.0,96000000.0,8932000000.0,683000000.0,388000000.0,0.0,0.0,435000000.0,0.0,-45000000.0,0.0,1833000000.0,-488000000.0,1018000000.0,-244000000.0,-67000000.0,0.0,0.0,51000000.0,-260000000.0,0.0,121000000.0,-100000000.0,-307000000.0,-299000000.0,-585000000.0,37000000.0,210000000.0,709000000.0,499000000.0,774000000.0,29.84,29.895,19.85,25013000.0,0.895,8.479999999999999,28.33,0.3029162746942615,0.0,0.0,774000000.0,7219000000.0,1411000000.0,1063000000.0,1609000000.0,3572000000.0,1859000000.0,1859000000.0,0.08136234626300852,0.48804780876494025,0.03185115105644907,0.040786292441921584,0.0,0.040786292441921584,0.11174182697361505,0.1483233469988437,0.16913697046147377,2.1714801444043323,0.2529170608640807,27.71723282895137,3.2282869730345967,2.2551390948815686,-0.7109224020040087,10.407437786714421,-0.8944802353083224,1350000000.0,0.37793952967525196,0.5251851851851852,709000000.0,0.5251851851851852,641000000.0,641000000.0,1833000000.0,1.825303917154435,0.31922557406573615,0.17488899851998027,0.07937751903269144,0.6217805151175811,0.2486565158978952,99.0,0.8626744709590275,0.31922557406573615,0.20521719659650695,0.34068517689207345,0.15114196148678907,0.07176444245409763,0.37793952967525196,1.4736842105263157,0.17945128779395297,0.399910434393193,2.5005599104143337,2.8316299085529857,0.44176430048242593,0.5251851851851852,0.305661094224924,0.6537162162162162,3.627842866988284,0.0,9513000000.0,,2.355783308931186,0.1912094064949608,772368767.6387582,6615000000.0,0.11676020674811159,6711000000.0,0.15839666219639398,0.23975562509313067,1.0650470219435737,5.575278810408922,inf,13.417489421720733,0.3934169278996865,0.4867710209170245,0.11700680272108843,0.21025182536134704,0.11533303531515422,0.1190103000447828,0.14725031167751765,0.0864720966904118,0.3674018289402905,0.45044792833146696,0.10079693034238489,0.03392297357814599,0.08482642777155655,0.027317510076130765,0.09874544718737353,0.7586206896551724,0.12046574115539632,0.0,1.4494875549048316,-0.42377260981912146,-0.22605099931082012
2005,10201000000,6473000000,3728000000,0.3655,309000000.0,1771000000,372000000,2452000000,8925000000,0.0,0.0,372000000.0,1319000000.0,0.1225,1276000000,0.1251,-329000000,947000000,0.0928,282000000,596000000,0.0584,1.75,1.75,339601140,341547278,466000000.0,0.0,466000000.0,1871000000.0,1119000000.0,563000000.0,4019000000.0,2304000000.0,0.0,1654000000.0,1654000000.0,311000000.0,0.0,393000000.0,4662000000.0,0.0,8681000000.0,1776000000.0,101000000.0,0.0,0.0,472000000.0,2349000000.0,1169000000.0,0.0,90000000.0,1912000000.0,3171000000.0,0.0,0.0,5520000000.0,0.0,484000000.0,7057000000.0,-819000000.0,-3669000000.0,3053000000.0,8573000000.0,108000000.0,8681000000.0,596000000.0,372000000.0,0.0,0.0,-163000000.0,0.0,-59000000.0,0.0,1670000000.0,260000000.0,1065000000.0,-288000000.0,-91000000.0,-1990000000.0,2040000000.0,-36000000.0,-365000000.0,0.0,148000000.0,-607000000.0,-316000000.0,-82000000.0,-857000000.0,-36000000.0,-193000000.0,466000000.0,659000000.0,777000000.0,32.635000000000005,32.0,21.925,32620100.0,0.93,9.409999999999998,31.335,0.29778247096092925,0.0,0.0,777000000.0,7027000000.0,1585000000.0,947000000.0,1203000000.0,3053000000.0,1399000000.0,1399000000.0,0.07616900303891776,0.4750536480686695,0.030291147926673857,0.03646701303793746,0.0,0.03646701303793746,0.0928340358788354,0.15537692383099697,0.11792961474365259,1.921630094043887,0.240368591314577,30.0381794949216,3.757348988875597,2.2879781852322405,-0.8480536902791316,8.9899580431326,-0.9305033546118249,1270000000.0,0.41598427775958075,0.3669291338582677,777000000.0,0.6118110236220472,804000000.0,493000000.0,1670000000.0,1.7109408258833547,0.19838229033631333,0.11594924110475242,0.05368045156088008,0.7694071405175238,0.27059094574357795,99.0,0.6466581524052788,0.19838229033631333,0.1923741504434973,0.3652804976385209,0.14629650961870752,0.09261605805782744,0.41598427775958075,1.8080576482148707,0.2633475270226007,0.3516875935952079,2.843432689158205,3.945675482487491,0.6095526914329037,0.3669291338582677,0.21793478260869564,0.6646706586826348,4.184988627748294,0.0,10201000000.0,,2.0184563758389262,0.19521781853914183,896029567.0538542,6224000000.0,0.14396361938525937,6332000000.0,0.14955780164245105,0.1899873657612129,1.175095035134201,5.784629133154603,inf,21.890557939914164,0.42944361248704066,0.5305251174042978,0.12483933161953728,0.2503158559696778,0.12271004421983575,0.10908881465268978,0.13476590294578056,0.10321732139774845,0.4260185847033595,0.3940386505076974,0.08445515091398612,0.035594977537150095,0.1012119226989846,0.033175901393848635,0.125,0.8129247782513536,0.12890220020734938,0.0,1.5302013422818792,0.18404118404118405,0.10841546626231995
2006,11037000000,7036000000,4001000000,0.3625,318000000.0,1980000000,380000000,2678000000,9714000000,0.0,0.0,380000000.0,1440000000.0,0.124,1323000000,0.1199,-263000000,1060000000,0.096,278000000,711000000,0.0644,2.15,2.13,331468531,333021077,455000000.0,0.0,455000000.0,2168000000.0,1390000000.0,579000000.0,4592000000.0,2496000000.0,1396000000.0,586000000.0,1982000000.0,343000000.0,0.0,608000000.0,5429000000.0,0.0,10021000000.0,1081000000.0,140000000.0,0.0,0.0,1566000000.0,2787000000.0,1155000000.0,0.0,136000000.0,2561000000.0,3852000000.0,0.0,0.0,6639000000.0,0.0,484000000.0,7453000000.0,-939000000.0,-3764000000.0,3234000000.0,9873000000.0,148000000.0,10021000000.0,711000000.0,380000000.0,0.0,0.0,135000000.0,0.0,-78000000.0,0.0,1805000000.0,-96000000.0,1130000000.0,-372000000.0,-402000000.0,-963000000.0,963000000.0,112000000.0,-662000000.0,0.0,67000000.0,-153000000.0,-316000000.0,-99000000.0,-501000000.0,22000000.0,-11000000.0,455000000.0,466000000.0,758000000.0,31.93,32.125,22.73,37581600.0,0.955,10.364999999999998,33.095,0.2622641509433962,0.0,0.0,758000000.0,8039000000.0,1641000000.0,1060000000.0,1560000000.0,3234000000.0,1252000000.0,1252000000.0,0.06867808281235843,0.49487628092976754,0.028812177222071213,0.03442964573706623,0.0,0.03442964573706623,0.09604059074023738,0.1486817069855939,0.1413427561837456,2.0241874527588815,0.24263839811542992,33.29727852807843,3.991329119565803,2.2867932521775347,-1.1222784825990013,9.756582292271963,-0.953333334680872,1295000000.0,0.4004329004329004,0.35135135135135137,798000000.0,0.6162162162162163,840000000.0,497000000.0,1805000000.0,1.6476498026551847,0.16325798349479728,0.09908536585365854,0.045404650234507536,0.8617810760667903,0.2781159564913681,99.0,0.6731252242554718,0.16325798349479728,0.18012174433689251,0.3843927751721385,0.12922861989821374,0.08382396966370621,0.4004329004329004,2.0528756957328387,0.2597402597402597,0.3227222832052689,3.098639455782313,5.302715654952077,0.5833333333333334,0.35135135135135137,0.2349751468594668,0.6562770562770562,4.610416666666667,0.0,11037000000.0,,2.1940928270042193,0.21985157699443414,976024528.3018867,7086000000.0,0.13773984311344717,7234000000.0,0.1465302737074924,0.21564832734310202,1.1013870871170541,5.061870503597122,inf,24.257142857142856,0.3992615507434388,0.4976987187461127,0.10697149308495625,0.22684545203207077,0.10478296931158419,0.10577786648039118,0.1318571961686777,0.09739791720406014,0.5678913738019169,0.48237476808905383,0.09539782637863947,0.031733359944117356,0.09833024118738404,0.03712204370821275,0.14903846153846154,0.743738149885241,0.13870871170541862,0.0,1.4444444444444444,-0.3034300791556728,-0.1597222222222222
2007,11206000000,7087000000,4119000000,0.3676,339000000.0,2136000000,380000000,2855000000,9942000000,0.0,0.0,380000000.0,1623000000.0,0.14,1264000000,0.1128,-21000000,1243000000,0.1109,355000000,834000000,0.0744,2.54,2.52,328994083,331610338,526000000.0,1706000000.0,2232000000.0,2398000000.0,1368000000.0,1138000000.0,7136000000.0,2426000000.0,1476000000.0,612000000.0,2088000000.0,370000000.0,0.0,609000000.0,5493000000.0,0.0,12629000000.0,2150000000.0,1819000000.0,0.0,0.0,692000000.0,4661000000.0,1201000000.0,0.0,164000000.0,2319000000.0,3684000000.0,0.0,0.0,8345000000.0,0.0,484000000.0,7963000000.0,-582000000.0,-3714000000.0,4151000000.0,12496000000.0,133000000.0,12629000000.0,834000000.0,380000000.0,0.0,0.0,670000000.0,0.0,-55000000.0,0.0,2475000000.0,-888000000.0,996000000.0,-353000000.0,-231000000.0,0.0,0.0,-1623000000.0,-2207000000.0,0.0,194000000.0,-274000000.0,-335000000.0,1698000000.0,1283000000.0,11000000.0,83000000.0,526000000.0,443000000.0,643000000.0,36.82,36.73,26.615,39308700.0,1.02,11.384999999999998,38.0,0.2855993563958166,0.0,0.0,643000000.0,10541000000.0,1603000000.0,1243000000.0,1959000000.0,4151000000.0,2063000000.0,2063000000.0,0.05737997501338569,0.5185724690458849,0.030251650901302874,0.03391040514010352,0.0,0.03391040514010352,0.11092271997144387,0.1430483669462788,0.17481706228805996,2.2587025316455698,0.25477422809209355,34.061402861157234,3.8420143866234824,1.9544424450940656,-1.0729676253782352,12.617248195311769,-1.0182553951889768,3020000000.0,0.7275355336063599,0.1741721854304636,2602000000.0,0.8615894039735099,788000000.0,418000000.0,2475000000.0,1.5310019309161125,0.11285131945934349,0.312780269058296,0.17673608361707183,1.1228619609732595,0.36907118536701244,99.0,0.4921690624329543,0.4788671958807123,0.19597751207538205,0.2917095573679626,0.239132156148547,0.06239607253147517,0.7275355336063599,2.0103589496506866,0.18983377499397736,0.32868794045450944,3.042399421826066,4.045079980610761,0.48552064078866297,0.7390728476821192,0.2347513481126423,0.5353871773522065,5.141712877387554,0.0,11206000000.0,,2.3489208633093526,0.2009154420621537,903002413.5156878,7835000000.0,0.11525238206964745,7968000000.0,0.15599899598393574,0.24585843373493976,0.8873228284108006,5.180555555555555,inf,21.304182509505704,0.3261540897933328,0.39075988995351485,0.0820676451818762,0.201179718875502,0.08069779116465864,0.09842426162008076,0.11792050090124277,0.07150228945408883,0.40426563257392145,0.47193447362081425,0.10473439658420193,0.02684298044184021,0.08166706817634305,0.027951540106104997,0.14550700741962078,0.6305329004671787,0.10832211576530208,0.0,1.4016786570743405,-0.3965785381026439,-0.15711645101663585
2008,15849000000,10155000000,5694000000,0.3593,451000000.0,3432000000,567000000,4450000000,14605000000,26000000.0,254000000.0,563000000.0,1725000000.0,0.1034,1244000000,0.0785,-336000000,908000000,0.0573,284000000,538000000,0.0339,1.64,1.63,329200000,331076923,1021000000.0,0.0,1021000000.0,2804000000.0,1702000000.0,821000000.0,6348000000.0,2798000000.0,2641000000.0,1472000000.0,4113000000.0,509000000.0,0.0,930000000.0,8350000000.0,0.0,14698000000.0,1402000000.0,903000000.0,0.0,0.0,1905000000.0,4210000000.0,3009000000.0,0.0,425000000.0,3721000000.0,7155000000.0,0.0,0.0,11365000000.0,0.0,484000000.0,8156000000.0,-1628000000.0,-3679000000.0,3333000000.0,14698000000.0,0.0,14698000000.0,538000000.0,563000000.0,0.0,0.0,-337000000.0,0.0,79000000.0,0.0,2138000000.0,594000000.0,1358000000.0,-383000000.0,-1448000000.0,0.0,0.0,1956000000.0,125000000.0,-3691000000.0,13000000.0,-7000000.0,-343000000.0,3050000000.0,-978000000.0,-10000000.0,495000000.0,1021000000.0,526000000.0,975000000.0,30.5,30.285,22.595,66710100.0,1.045,12.429999999999998,35.025,0.31277533039647576,0.0,-228000000.0,800444933.9207048,10585000000.0,1699000000.0,1162000000.0,1186000000.0,3333000000.0,-780000000.0,-780000000.0,0.06151807685027447,0.6027397260273972,0.0284560540097167,0.03577512776831346,-0.014385765663448798,0.03552274591456874,0.07331692851283993,0.10719919237806802,0.07483121963530823,3.577170418006431,0.28077481229099627,48.14398541919805,3.778857837181045,2.9617253948967193,-1.163426488456865,10.124544349939246,-1.0419198055893073,3912000000.0,1.1737173717371736,0.26099182004089977,1530000000.0,0.3911042944785276,2891000000.0,2382000000.0,2138000000.0,1.5078384798099762,0.24251781472684086,0.16083805923125394,0.06946523336508369,1.263126312631263,0.28643352837120695,4.574803149606299,0.3631828978622328,0.24251781472684086,0.14546196761464145,0.48680092529595864,0.26615866104231867,0.196693427677235,1.1737173717371736,3.40984098409841,0.8673867386738674,0.2267655463328344,4.40984098409841,-14.570512820512821,1.6759420289855071,0.26099182004089977,0.10435547734271887,0.3240279162512463,6.58840579710145,0.06492842535787322,15849000000.0,,2.204460966542751,0.16141614161416143,854907488.9867841,10488000000.0,0.08151291847700078,10488000000.0,0.11079328756674295,0.11308161708619374,1.0783099741461424,5.966509988249118,inf,15.523016650342802,0.38739964621036876,0.5379310344827586,0.07632007379106644,0.1619946605644546,0.07632007379106644,0.07905837528915499,0.10977798771846953,0.05816488562979889,-0.6897435897435897,0.3558355835583558,0.06596370769985287,0.030684446863518847,0.1353135313531353,0.026057967070349707,0.13688348820586133,0.5549054293101102,0.11579806776432168,0.0,1.637546468401487,-0.35794871794871796,-0.20231884057971014
2009,12239000000,7539000000,4700000000,0.384,388000000.0,2936000000,493000000,3817000000,11356000000,28000000.0,193000000.0,480000000.0,1290000000.0,0.098,883000000,0.0721,-266000000,617000000,0.0504,191000000,336000000,0.0275,1.02,1.01,329600000,331000000,1057000000.0,0.0,1057000000.0,2628000000.0,1548000000.0,748000000.0,5981000000.0,2754000000.0,2784000000.0,1416000000.0,4200000000.0,499000000.0,0.0,806000000.0,8259000000.0,0.0,14240000000.0,1384000000.0,272000000.0,0.0,0.0,1921000000.0,3577000000.0,3074000000.0,0.0,328000000.0,3339000000.0,6741000000.0,0.0,0.0,10318000000.0,0.0,484000000.0,8139000000.0,-1261000000.0,-3609000000.0,3753000000.0,14071000000.0,169000000.0,14240000000.0,336000000.0,480000000.0,0.0,0.0,266000000.0,0.0,232000000.0,-152000000.0,2404000000.0,263000000.0,1345000000.0,-239000000.0,-26000000.0,0.0,0.0,62000000.0,-203000000.0,-1076000000.0,12000000.0,-59000000.0,-430000000.0,430000000.0,-1123000000.0,17000000.0,36000000.0,1057000000.0,1021000000.0,1106000000.0,22.285,24.87,19.42,73079800.0,1.065,13.494999999999996,32.915,0.3095623987034036,0.0,-165000000.0,972745542.9497569,10040000000.0,1284000000.0,810000000.0,1438000000.0,3753000000.0,-447000000.0,-447000000.0,0.09036686003758478,0.6246808510638298,0.03170193643271509,0.04028106871476428,-0.013481493586077293,0.03921889043222485,0.06618187760437945,0.10491053190620149,0.11749325925320696,4.322763306908267,0.3118718849579214,37.132888349514566,2.679004854368932,3.3555825242718447,-0.725121359223301,11.386529126213592,-1.3046116504854368,3346000000.0,0.8915534239275247,0.3158995815899582,1556000000.0,0.4650328750747161,2289000000.0,1790000000.0,2404000000.0,1.6720715683533687,0.29549902152641877,0.17672629994984115,0.07422752808988764,0.9531041833200107,0.2511938202247191,4.196891191709844,0.5222253284875594,0.29549902152641877,0.16882022471910113,0.47338483146067417,0.23497191011235954,0.1607443820224719,0.8915534239275247,2.7492672528643753,0.609912070343725,0.26355337078651686,3.7942978950173196,-23.082774049217,1.7744186046511627,0.3158995815899582,0.1393680945919752,0.3597918022121015,7.998449612403101,0.057680812910938434,12239000000.0,,4.279761904761905,0.08952837729816147,609656401.9448947,10494000000.0,0.05809571202066845,10663000000.0,0.07596361249179405,0.1348588577323455,0.8594803370786517,4.87015503875969,inf,11.578997161778618,0.3300561797752809,0.4681274900398406,0.09269540146271744,0.1204163931351402,0.09122625367624092,0.05688202247191011,0.08067729083665338,0.042812949574781926,-0.7516778523489933,0.383160138555822,0.04128271286398821,0.027247191011235954,0.10338395949906741,0.01678370786516854,0.08678286129266521,0.571558988764045,0.10870786516853932,0.0,2.2797619047619047,-0.3462929475587703,-0.29689922480620157
2010,13423000000,8214000000,5209000000,0.3881,394000000.0,2979000000,482000000,3855000000,12069000000,34000000.0,189000000.0,470000000.0,1954000000.0,0.1373,1354000000,0.1009,-59000000,1295000000,0.0965,415000000,769000000,0.0573,2.33,2.31,329000000,331800000,1341000000.0,637000000.0,1978000000.0,2778000000.0,1573000000.0,729000000.0,7058000000.0,2686000000.0,2719000000.0,1268000000.0,3987000000.0,550000000.0,0.0,694000000.0,7917000000.0,0.0,14975000000.0,1626000000.0,28000000.0,0.0,0.0,1971000000.0,3625000000.0,4043000000.0,0.0,293000000.0,3181000000.0,7517000000.0,0.0,0.0,11142000000.0,0.0,484000000.0,8548000000.0,-1411000000.0,-3983000000.0,3638000000.0,14780000000.0,195000000.0,14975000000.0,769000000.0,470000000.0,0.0,0.0,1029000000.0,0.0,-34000000.0,0.0,3433000000.0,-958000000.0,1310000000.0,-307000000.0,-34000000.0,-624000000.0,0.0,16000000.0,-949000000.0,-262000000.0,146000000.0,-586000000.0,-447000000.0,1045000000.0,-104000000.0,27000000.0,284000000.0,1341000000.0,1057000000.0,1003000000.0,33.205,33.83,27.51,52185200.0,1.09,14.584999999999996,42.095,0.3204633204633205,0.0,-155000000.0,874567567.5675676,10988000000.0,1760000000.0,1484000000.0,2438000000.0,3638000000.0,-349000000.0,-349000000.0,0.07472249124636818,0.5718947974659243,0.029352603739849513,0.035908515235044326,-0.011547344110854504,0.035014527303881396,0.11055650748714892,0.1311182299038963,0.1816285480146018,2.84711964549483,0.287193622886091,40.79939209726444,4.1155015197568385,3.048632218844985,-0.9331306990881459,11.05775075987842,-1.358662613981763,4071000000.0,1.1190214403518417,0.32940309506263815,2528000000.0,0.6209776467698355,2093000000.0,1543000000.0,3433000000.0,1.9470344827586208,0.3699310344827586,0.2802493624256163,0.13208681135225375,0.9964266080263882,0.24207011686143573,7.851851851851852,0.7958620689655173,0.5456551724137931,0.22924874791318864,0.5019699499165275,0.2718530884808013,0.13976627712854758,1.1190214403518417,3.062671797691039,0.5753161077515119,0.2429382303839733,4.116272677295217,-31.925501432664756,1.071136131013306,0.4858757062146893,0.21881170346436907,0.24808310660400693,5.702149437052201,0.04642593957258659,13423000000.0,,3.1703511053315996,0.2113798790544255,920092664.092664,11155000000.0,0.0824825337599878,11350000000.0,0.1307488986784141,0.21480176211453744,0.8963606010016695,5.2218690400508585,inf,10.009694258016406,0.34784641068447414,0.474062613760466,0.07840139556858518,0.15506607929515417,0.07705441123943327,0.09909849749582637,0.13505642519111757,0.061441914129727146,-2.2034383954154726,0.6701484332050577,0.08996256434253627,0.026310517529215358,0.10830126443100604,0.020500834724540902,0.1142963514519732,0.5708180300500835,0.10504173622704507,0.0,1.5812743823146944,-0.006979062811565304,-0.0035823950870010235
2011,14885000000,9081000000,5804000000,0.3899,430000000.0,3234000000,467000000,4131000000,13212000000,42000000.0,210000000.0,467000000.0,2274000000.0,0.1449,1673000000,0.1124,-76000000,1597000000,0.1073,385000000,1095000000,0.0736,3.48,3.44,314600000,318600000,1457000000.0,25000000.0,1482000000.0,2830000000.0,1607000000.0,775000000.0,6694000000.0,2721000000.0,2660000000.0,1125000000.0,3785000000.0,387000000.0,0.0,795000000.0,7688000000.0,0.0,14382000000.0,1612000000.0,108000000.0,0.0,0.0,1982000000.0,3702000000.0,3574000000.0,0.0,272000000.0,3388000000.0,7234000000.0,0.0,0.0,10936000000.0,0.0,484000000.0,9288000000.0,-1800000000.0,-4723000000.0,3249000000.0,14185000000.0,197000000.0,14382000000.0,1095000000.0,467000000.0,0.0,0.0,-441000000.0,0.0,-73000000.0,0.0,2992000000.0,315000000.0,1436000000.0,-390000000.0,-56000000.0,-125000000.0,749000000.0,175000000.0,353000000.0,-398000000.0,81000000.0,-858000000.0,-355000000.0,-102000000.0,-1632000000.0,-41000000.0,116000000.0,1457000000.0,1341000000.0,1046000000.0,43.155,43.545,36.42,51962400.0,1.13,15.714999999999996,52.135,0.24107701941139636,0.0,-168000000.0,886626174.0763932,10597000000.0,2103000000.0,1807000000.0,1314000000.0,3249000000.0,-536000000.0,-536000000.0,0.07027208599261,0.5572019297036527,0.02888814242526033,0.031373866308364126,-0.011286530063822641,0.031373866308364126,0.12139737991266375,0.14128317097749413,0.08827678871346993,2.469216975493126,0.27752771246221025,47.31404958677686,5.31786395422759,3.3248569612205974,-1.2396694214876034,10.327399872854418,-1.1284170375079465,3682000000.0,1.1332717759310558,0.3957088538837588,1869000000.0,0.5076045627376425,2200000000.0,1813000000.0,2992000000.0,1.808211777417612,0.3935710426796326,0.22139229160442186,0.10304547350855235,1.139427516158818,0.25740508969545267,8.604761904761904,0.4508373851971907,0.40032414910858993,0.20803782505910165,0.5029898484216382,0.2560144625225977,0.15296898901404535,1.1332717759310558,3.365958756540474,0.6771314250538627,0.22590738423028786,4.426592797783933,-20.402985074626866,0.9674582233948988,0.4024986420423683,0.1201536210680322,0.2926692781197538,4.809146877748461,0.057034220532319393,14885000000.0,,1.2,0.33702677746999077,1269678146.5247338,10483000000.0,0.12111782376464121,10680000000.0,0.16919475655430713,0.12303370786516854,1.0349742733973022,5.650902302426882,inf,10.216197666437886,0.4035600055625087,0.5477021798622251,0.08457752304458582,0.19691011235955055,0.08301743202962483,0.1256431650674454,0.17051995847881476,0.08828244656687066,-2.042910447761194,0.40443213296398894,0.11789405684754523,0.02989848421638159,0.13234841489689136,0.027117229870671673,0.14332965821389196,0.6458072590738423,0.11173689333889585,0.0,1.3242009132420092,0.40344168260038243,0.18557607739665788
2012,15200000000,9069000000,6131000000,0.4034,455000000.0,3335000000,414000000,4204000000,13273000000,39000000.0,210000000.0,465000000.0,2077000000.0,0.1286,1927000000,0.1268,-525000000,1402000000,0.0922,338000000,941000000,0.0619,3.06,3.03,306800000,310200000,1306000000.0,1087000000.0,2393000000.0,2813000000.0,1687000000.0,822000000.0,7715000000.0,2888000000.0,2761000000.0,1085000000.0,3846000000.0,422000000.0,0.0,1007000000.0,8163000000.0,0.0,15878000000.0,1832000000.0,642000000.0,0.0,0.0,1987000000.0,4461000000.0,3368000000.0,0.0,231000000.0,3496000000.0,7095000000.0,0.0,0.0,11556000000.0,0.0,484000000.0,9871000000.0,-1666000000.0,-4626000000.0,4063000000.0,15619000000.0,259000000.0,15878000000.0,941000000.0,465000000.0,0.0,0.0,262000000.0,90000000.0,29000000.0,0.0,3254000000.0,119000000.0,1787000000.0,-411000000.0,-122000000.0,-1355000000.0,251000000.0,26000000.0,-1611000000.0,-203000000.0,122000000.0,-92000000.0,-358000000.0,180000000.0,-351000000.0,24000000.0,-151000000.0,1306000000.0,1457000000.0,1376000000.0,52.84,53.895,46.215,38582200.0,1.17,16.884999999999998,63.1,0.24108416547788872,0.0,-171000000.0,1216627674.7503567,12032000000.0,2331000000.0,1612000000.0,2316000000.0,4063000000.0,217000000.0,217000000.0,0.09052631578947369,0.5439569401402707,0.02993421052631579,0.027236842105263157,-0.01125,0.030592105263157896,0.10605263157894737,0.15335526315789474,0.15236842105263157,2.1816294758692267,0.27657894736842104,49.54367666232073,6.28096479791395,4.485006518904824,-1.3396349413298565,13.243155149934811,-1.166883963494133,4010000000.0,0.9869554516367216,0.3256857855361596,2815000000.0,0.7019950124688279,1617000000.0,1195000000.0,3254000000.0,1.729432862586864,0.27258462228199953,0.3101749837977965,0.15071167653356846,1.0979571745016,0.2809547801990175,7.6761904761904765,0.5994171710378838,0.5364268101322573,0.2049376495780325,0.44684469076709915,0.2525506990804887,0.10183902254692026,0.9869554516367216,2.844203790302732,0.3979817868570022,0.2558886509635974,3.907949790794979,53.25345622119816,0.778526721232547,0.5967581047381546,0.20041536863966772,0.4085510688836104,5.563793933558016,0.05236907730673317,15110000000.0,inf,2.461211477151966,0.23160226433669703,1462430813.1241086,11158000000.0,0.13106567602833022,11417000000.0,0.1411929578698432,0.202855391083472,0.9572994079858924,5.375815056312982,168.88888888888889,11.638591117917304,0.3861317546290465,0.5095578457446809,0.10903635729972726,0.2041692213366033,0.10656281639225336,0.10152412142587228,0.13397606382978725,0.09210422050158135,4.336405529953917,0.5700221511198622,0.09532975382433391,0.028656002015367176,0.11198621708097464,0.025884872150144855,0.14231301939058172,0.6216777931729437,0.10624763824159214,0.005668220178863837,1.3804463336875665,-0.2819767441860465,-0.1868078960038517
2013,15108000000,8636000000,6472000000,0.4284,488000000.0,3699000000,427000000,4614000000,13250000000,43000000.0,196000000.0,475000000.0,2160000000.0,0.2803,1858000000,0.123,-369000000,1489000000,0.0986,333000000,3231000000,0.2139,11.27,11.13,286800000,290200000,1116000000.0,629000000.0,1745000000.0,2736000000.0,1824000000.0,909000000.0,7214000000.0,2876000000.0,3008000000.0,1339000000.0,4347000000.0,393000000.0,491000000.0,542000000.0,8649000000.0,0.0,15863000000.0,2015000000.0,34000000.0,0.0,0.0,2086000000.0,4135000000.0,3372000000.0,0.0,249000000.0,2909000000.0,6530000000.0,0.0,0.0,10665000000.0,0.0,484000000.0,12757000000.0,-1260000000.0,-7049000000.0,4932000000.0,15597000000.0,266000000.0,15863000000.0,3231000000.0,475000000.0,-36000000.0,81000000.0,-175000000.0,44000000.0,43000000.0,0.0,3079000000.0,-1785000000.0,1791000000.0,-515000000.0,-43000000.0,-1269000000.0,1833000000.0,-518000000.0,3000000.0,-605000000.0,68000000.0,-1000000000.0,-345000000.0,-97000000.0,-1979000000.0,-5000000.0,-190000000.0,1116000000.0,1306000000.0,1276000000.0,75.38499999999999,77.46000000000001,67.515,31659200.0,1.21,18.095,85.61,0.22364002686366688,0.0,-153000000.0,1123833445.2652788,11516000000.0,2298000000.0,1685000000.0,1825000000.0,4932000000.0,585000000.0,585000000.0,0.0844585649986762,0.5715389369592089,0.032300767805136354,0.028263171829494307,-0.010127084988085783,0.031440296531638864,0.1115303150648663,0.15210484511517078,0.1207969287794546,2.4833153928955864,0.3054011119936457,52.67782426778243,6.478382147838214,4.449093444909344,-1.795676429567643,17.196652719665273,-1.202928870292887,3406000000.0,0.6905920519059205,0.3276570757486788,2138000000.0,0.6277157956547269,1661000000.0,1268000000.0,3079000000.0,1.7446191051995164,0.2592503022974607,0.24189076795120598,0.110004412784467,0.8384022708840227,0.2606694824434218,8.596938775510203,0.524788391777509,0.42200725513905685,0.19409947676984177,0.4116497509928765,0.2147134842085356,0.10470907142406859,0.6905920519059205,2.1624087591240877,0.33678021086780213,0.3109121855891067,3.2163422546634224,18.23076923076923,0.7689814814814815,0.5123311802701116,0.17112048757618378,0.37841043890865955,4.9375,0.057545507927187316,15064000000.0,inf,0.5648406066233365,0.6551094890510949,1442476830.087307,11462000000.0,0.1258486154324993,11728000000.0,0.1436732605729877,0.15561050477489768,0.9524049675345143,4.734649122807017,343.3636363636364,13.53763440860215,0.4079934438630776,0.5620006946856547,0.09804863420566035,0.1959413369713506,0.0958248162743246,0.10622202609846813,0.1463181660298715,0.09093341928306796,5.523076923076923,0.3700324412003244,0.2532727130203026,0.030763411712790772,0.0989456609894566,0.03246548572149026,0.1790681502086231,0.8041984492214588,0.1149845552543655,0.0027737502363991678,1.1067780872794801,0.46003134796238243,0.27175925925925926
2014,15360000000,8791000000,6569000000,0.4277,492000000.0,3758000000,426000000,4676000000,13467000000,50000000.0,187000000.0,476000000.0,2079000000.0,0.1969,1893000000,0.1232,-477000000,1416000000,0.0922,259000000,2102000000,0.1368,7.6,7.51,276600000,279600000,686000000.0,497000000.0,1183000000.0,2815000000.0,1825000000.0,1027000000.0,6850000000.0,3092000000.0,3801000000.0,2411000000.0,6212000000.0,443000000.0,505000000.0,481000000.0,10733000000.0,0.0,17583000000.0,2183000000.0,481000000.0,0.0,0.0,2212000000.0,4876000000.0,3544000000.0,0.0,702000000.0,3196000000.0,7442000000.0,0.0,0.0,12318000000.0,0.0,484000000.0,14498000000.0,-2116000000.0,-7686000000.0,5180000000.0,17498000000.0,85000000.0,17583000000.0,2102000000.0,476000000.0,-89000000.0,73000000.0,-1105000000.0,-119000000.0,-95000000.0,0.0,1974000000.0,71000000.0,1528000000.0,-587000000.0,-488000000.0,-1249000000.0,1384000000.0,-504000000.0,-857000000.0,-1803000000.0,57000000.0,-750000000.0,-361000000.0,1888000000.0,-969000000.0,-132000000.0,-430000000.0,686000000.0,1116000000.0,941000000.0,98.37,99.995,88.38999999999999,32574400.0,1.31,19.405,107.795,0.182909604519774,0.0,-137000000.0,788204096.0451977,11371000000.0,2335000000.0,1603000000.0,1005000000.0,5180000000.0,-1032000000.0,-1032000000.0,0.061263020833333334,0.5720809864515147,0.03203125,0.027734375,-0.008919270833333333,0.030989583333333334,0.10436197916666666,0.15201822916666666,0.0654296875,2.4701531959852088,0.30442708333333335,55.53145336225597,6.843817787418655,3.4020245842371657,-2.122198120028923,18.727404193781634,-1.3051337671728127,4025000000.0,0.777027027027027,0.17043478260869566,1626000000.0,0.4039751552795031,2842000000.0,2399000000.0,1974000000.0,1.4048400328137818,0.1650943396226415,0.1727007299270073,0.06728089632030938,0.9413127413127413,0.27731331399647385,8.572192513368984,0.2801476620180476,0.242616899097621,0.11226753113803105,0.42324972985269865,0.22891429221407042,0.16163339589376102,0.777027027027027,2.377992277992278,0.5486486486486486,0.29460274128419495,3.3944015444015445,-11.936046511627907,1.367003367003367,0.29391304347826086,0.0815879201169021,0.2655191873589165,5.924963924963925,0.046459627329192545,15479000000.0,-inf,0.478116079923882,0.4057915057915058,1546752118.6440678,12622000000.0,0.12254413869783455,12707000000.0,0.12615094042653655,0.07909026520815299,0.8735710629585395,4.816986301369863,-129.07563025210084,22.39067055393586,0.3735994995165785,0.5776976519215549,0.06244684646214528,0.1837569843393405,0.06202912536752953,0.09116760507308196,0.14097264972297952,0.08796861278758276,-2.0368217054263567,0.19401544401544402,0.14498551524348186,0.02798157311039072,0.09498069498069497,0.03338451913780356,0.18984476067270376,0.8245464368992778,0.1037934368424046,-0.00676790081328556,1.1717411988582302,0.3528161530286929,0.1596921596921597
2015,15330000000,8591000000,6739000000,0.4396,486000000.0,3679000000,456000000,4621000000,13212000000,40000000.0,126000000.0,495000000.0,2503000000.0,0.162,2118000000,0.1382,-236000000,1882000000,0.1228,456000000,1406000000,0.0917,5.18,5.14,271400000,273600000,1311000000.0,144000000.0,1455000000.0,2788000000.0,1705000000.0,606000000.0,6554000000.0,3017000000.0,3669000000.0,2178000000.0,5847000000.0,367000000.0,672000000.0,619000000.0,10522000000.0,0.0,17076000000.0,2174000000.0,283000000.0,0.0,0.0,2199000000.0,4656000000.0,4042000000.0,0.0,460000000.0,2849000000.0,7351000000.0,0.0,0.0,12007000000.0,0.0,969000000.0,15521000000.0,-2702000000.0,-8805000000.0,4983000000.0,16990000000.0,86000000.0,17076000000.0,1406000000.0,495000000.0,0.0,56000000.0,-76000000.0,-149000000.0,46000000.0,0.0,1898000000.0,-44000000.0,1837000000.0,-476000000.0,-273000000.0,-131000000.0,458000000.0,-449000000.0,-395000000.0,-340000000.0,53000000.0,-751000000.0,-383000000.0,667000000.0,-754000000.0,-63000000.0,625000000.0,1311000000.0,686000000.0,1361000000.0,110.745,109.58,98.115,31352900.0,1.415,20.82,118.935,0.24229543039319873,0.0,-86000000.0,1265529224.229543,11229000000.0,2565000000.0,2008000000.0,2081000000.0,4983000000.0,-864000000.0,-864000000.0,0.08878016960208741,0.545926695355394,0.031702544031311154,0.02974559686888454,-0.005609915198956295,0.03228962818003914,0.1309849967384214,0.16731898238747553,0.13574690150032614,2.1817752596789424,0.3014350945857795,56.48489314664702,7.803979366249079,5.014738393515107,-1.7538688282977155,18.360353721444362,-1.4112011790714811,4325000000.0,0.8679510335139474,0.303121387283237,1822000000.0,0.42127167630057805,2870000000.0,2503000000.0,1898000000.0,1.4076460481099657,0.313573883161512,0.2220018309429356,0.08520730850316233,0.9343768813967489,0.27266338721011946,15.936507936507937,0.5292096219931272,0.3125,0.11115015226048255,0.4304872335441555,0.25327945654720074,0.16807214804403842,0.8679510335139474,2.409592614890628,0.5759582580774634,0.29181307097680953,3.4268512944009633,-13.89699074074074,1.1466240511386336,0.33641618497109826,0.17331556591988007,0.33671449777337953,4.7970435477427085,0.029132947976878612,15479000000.0,-inf,1.4800853485064012,0.28215934176199076,1604818278.427205,12334000000.0,0.13011336779854102,12420000000.0,0.16167471819645732,0.1675523349436393,0.8977512297962053,5.038709677419355,-102.88590604026845,11.693363844393593,0.39464745842117593,0.6001424882001959,0.1026049314277236,0.20652173913043478,0.10189446249835289,0.11759194190676973,0.1788226912458812,0.09398092518313451,-1.6273148148148149,0.41761990768613283,0.09058694671735068,0.028460997891777935,0.0975316074653823,0.027875380651206372,0.15777262180974477,0.908936519091122,0.09984773951745139,-0.00872569688451628,1.2724039829302987,0.23144746509919176,0.12584898122253296
2016,14751000000,8063000000,6688000000,0.4534,466000000.0,4630000000,-521000000,4575000000,12638000000,26000000.0,125000000.0,462000000.0,1414000000.0,0.1156,2113000000,0.1432,-1286000000,827000000,0.0561,241000000,877000000,0.0595,3.3,3.28,265600000,267400000,1820000000.0,43000000.0,1863000000.0,2692000000.0,1546000000.0,351000000.0,6452000000.0,2759000000.0,3572000000.0,1983000000.0,5555000000.0,179000000.0,154000000.0,670000000.0,9317000000.0,0.0,15769000000.0,2175000000.0,629000000.0,0.0,0.0,1436000000.0,4240000000.0,3787000000.0,0.0,417000000.0,2412000000.0,6616000000.0,0.0,0.0,10856000000.0,0.0,969000000.0,15984000000.0,-2356000000.0,-9771000000.0,4826000000.0,15682000000.0,87000000.0,15769000000.0,877000000.0,462000000.0,155000000.0,39000000.0,314000000.0,-59000000.0,61000000.0,0.0,2212000000.0,-522000000.0,1325000000.0,-402000000.0,745000000.0,-36000000.0,116000000.0,-389000000.0,436000000.0,-379000000.0,31000000.0,-1050000000.0,-414000000.0,628000000.0,-1184000000.0,-68000000.0,509000000.0,1820000000.0,1311000000.0,923000000.0,103.685,103.755,94.585,32096750.0,1.56,22.379999999999995,116.965,0.2914147521160822,0.0,-99000000.0,834426844.0145103,10214000000.0,1596000000.0,952000000.0,2648000000.0,4826000000.0,-729000000.0,-729000000.0,0.06257202901498203,0.6922846889952153,0.03159107857094434,-0.035319639346484986,-0.006711409395973154,0.03131991051454139,0.06453799742390347,0.10819605450477934,0.1795132533387567,2.165168007572172,0.31014846451088063,55.538403614457835,7.955572289156627,3.4751506024096384,-1.5135542168674698,18.170180722891565,-1.5587349397590362,4416000000.0,0.9150435142975549,0.4121376811594203,2042000000.0,0.4624094202898551,2553000000.0,2374000000.0,2212000000.0,1.521698113207547,0.44316037735849056,0.2887476751394916,0.11814319233940009,0.8785743887277249,0.26888198363878496,7.616,0.7221698113207548,0.4393867924528302,0.1402752235398567,0.41955735937599087,0.2800431225822817,0.1618999302428816,0.9150435142975549,2.2494819726481556,0.5290095317032739,0.30604350307565475,3.267509324492333,-14.891632373113854,1.8055162659123054,0.421875,0.24392041267501843,0.2437285450224452,7.6775106082036775,0.028306159420289856,14810000000.0,-inf,3.0193842645381985,0.18172399502693742,1497240628.7787185,11442000000.0,0.13085480062740068,11529000000.0,0.08257437765634487,0.22968167230462314,0.9354429577018201,5.215394566623544,-250.01694915254237,8.104945054945055,0.4241232798528759,0.6547875465047973,0.0729266600257394,0.1384335154826958,0.07237634174815771,0.0603716151943687,0.09320540434697475,0.09494835619118007,-1.2030178326474623,0.5486945710733526,0.054867367367367366,0.029551651975394763,0.09656029838375466,0.025493055995941403,0.1457049655672345,1.0136343458684762,0.09804045912867018,-0.0037415181685585643,1.4720638540478905,0.6554712892741061,0.42786421499292787
2017,14750000000,8204000000,6546000000,0.4438,453000000.0,3630000000,389000000,4472000000,12676000000,20000000.0,105000000.0,460000000.0,2573000000.0,0.1879,2074000000,0.1406,-66000000,2008000000,0.1361,616000000,1591000000,0.1079,6.36,6.31,256100000,257800000,1436000000.0,55000000.0,1491000000.0,2903000000.0,1730000000.0,353000000.0,6477000000.0,2824000000.0,3942000000.0,2045000000.0,5987000000.0,268000000.0,305000000.0,677000000.0,10061000000.0,0.0,16538000000.0,2581000000.0,12000000.0,0.0,0.0,1301000000.0,3894000000.0,4134000000.0,0.0,442000000.0,2395000000.0,6971000000.0,0.0,0.0,10865000000.0,0.0,969000000.0,17141000000.0,-2057000000.0,-10495000000.0,5558000000.0,16423000000.0,115000000.0,16538000000.0,1591000000.0,460000000.0,36000000.0,42000000.0,371000000.0,-76000000.0,-116000000.0,0.0,2583000000.0,-932000000.0,1568000000.0,-360000000.0,268000000.0,-35000000.0,37000000.0,-337000000.0,-67000000.0,-588000000.0,52000000.0,-813000000.0,-434000000.0,-171000000.0,-1954000000.0,69000000.0,-384000000.0,1436000000.0,1820000000.0,1208000000.0,105.995,107.51,99.405,27380850.0,1.7000000000000002,24.079999999999995,123.485,0.30677290836653387,0.0,-85000000.0,1135211155.3784862,10551000000.0,2456000000.0,2113000000.0,2289000000.0,5558000000.0,-429000000.0,-429000000.0,0.08189830508474576,0.5545371219065078,0.03071186440677966,0.026372881355932205,-0.00576271186440678,0.031186440677966103,0.1432542372881356,0.1665084745762712,0.1551864406779661,2.1562198649951783,0.30318644067796613,57.59468957438501,8.098399062866068,4.71690745802421,-1.405700898086685,21.702459976571653,-1.6946505271378367,4146000000.0,0.7459517812162648,0.34635793535938253,1759000000.0,0.424264351181862,2655000000.0,2387000000.0,2583000000.0,1.6633281972265024,0.3882896764252696,0.2301991662806855,0.09015600435360986,0.7006117308384311,0.2354577337041964,20.123809523809523,0.6992809450436569,0.3828967642526965,0.15618575402104246,0.42151408876526786,0.25069536824283467,0.16053936388922482,0.7459517812162648,1.954839870456999,0.4776898164807485,0.3360744951021889,2.9755307664627564,-25.326340326340326,1.0318694131364166,0.35962373371924744,0.2106764841233318,0.29221093372036766,4.222697240575204,0.02532561505065123,14826000000.0,-inf,1.4387177875549968,0.28625404821878375,1437752988.047809,12529000000.0,0.11475400974122507,12644000000.0,0.1671148370768744,0.1810344827586207,0.8918853549401379,4.742196531791907,-194.07894736842104,10.27158774373259,0.39581569718224696,0.6204151265282911,0.09060668492126156,0.19424232837709585,0.08978259691383156,0.12776635627040756,0.20026537768931854,0.08693632773296704,-3.7086247086247086,0.41183879093198994,0.09281838865877137,0.027391462087314064,0.08150413817920116,0.021768049340911838,0.1274787535410765,1.0364614826460272,0.10460757044382633,-0.004595477083081389,1.272784412319296,0.2706953642384106,0.12708900116595415
2018,15374000000,9001000000,6373000000,0.4145,441000000.0,3573000000,487000000,4501000000,13502000000,23000000.0,118000000.0,497000000.0,2308000000.0,0.1502,1872000000,0.1218,-179000000,1693000000,0.1101,353000000,1341000000,0.0872,5.5,5.47,243900000,245400000,902000000.0,61000000.0,963000000.0,2845000000.0,1783000000.0,370000000.0,5961000000.0,2805000000.0,4070000000.0,1972000000.0,6042000000.0,251000000.0,229000000.0,727000000.0,10054000000.0,0.0,16015000000.0,2460000000.0,651000000.0,0.0,0.0,1262000000.0,4373000000.0,4365000000.0,0.0,429000000.0,2116000000.0,6910000000.0,0.0,0.0,11283000000.0,0.0,969000000.0,18131000000.0,-2300000000.0,-12170000000.0,4630000000.0,15913000000.0,102000000.0,16015000000.0,1341000000.0,497000000.0,45000000.0,37000000.0,-995000000.0,-69000000.0,-109000000.0,0.0,1588000000.0,542000000.0,1467000000.0,-411000000.0,-378000000.0,-28000000.0,23000000.0,-381000000.0,-764000000.0,-6000000.0,15000000.0,-1721000000.0,-453000000.0,960000000.0,-1205000000.0,-32000000.0,-534000000.0,902000000.0,1436000000.0,1056000000.0,110.315,109.23,103.065,33525550.0,1.86,25.939999999999998,129.005,0.20850561134081513,0.0,-95000000.0,962603662.1382161,9973000000.0,2303000000.0,1811000000.0,1021000000.0,4630000000.0,-1412000000.0,-1412000000.0,0.06868739430206842,0.56064647732622,0.02868479250682971,0.03167685703135163,-0.006179263691947444,0.03232730584103031,0.11779627943280864,0.1497983608689996,0.06641082346819305,2.404380341880342,0.2927670092363731,63.0340303403034,7.675276752767528,4.329643296432964,-1.6851168511685117,18.98318983189832,-1.8573185731857318,5016000000.0,1.0833693304535637,0.17982456140350878,1214000000.0,0.2420255183413078,4053000000.0,3802000000.0,1588000000.0,1.3631374342556597,0.22204436313743425,0.16155007549068948,0.0601311270683734,0.9444924406047516,0.2730565095223228,15.347457627118644,0.33706837411388063,0.2202149554081866,0.09915704027474243,0.431470496409616,0.31320636902903526,0.2530752419606619,1.0833693304535637,2.4369330453563713,0.875377969762419,0.28910396503278174,3.458963282937365,-7.990793201133145,1.7560658578856152,0.19198564593301434,0.0904901178764513,0.24192439862542955,4.888648180242634,0.023524720893141945,15443000000.0,-inf,0.761372110365399,0.2896328293736501,1481677495.569994,11540000000.0,0.1283949302920272,11642000000.0,0.15555746435320392,0.0876997079539598,0.959975023415548,5.04823331463825,-222.81159420289856,17.044345898004433,0.3979394317827037,0.6390253684949363,0.08341452878147454,0.19781824428792305,0.08268370229670298,0.1130814861067749,0.18159029379324176,0.09251810774711171,-0.9497167138810199,0.2205183585313175,0.07396172301582925,0.027536684358413988,0.09524838012958964,0.025663440524508273,0.146524064171123,1.132126131751483,0.11133312519512957,-0.0043084608179831405,1.337807606263982,1.1865530303030303,0.542894280762565
2019,15146000000,8653000000,6493000000,0.4287,432000000.0,3604000000,503000000,4539000000,13192000000,32000000.0,132000000.0,511000000.0,2304000000.0,0.1504,1954000000,0.129,-293000000,1661000000,0.1097,392000000,1243000000,0.0821,5.25,5.22,236900000,238200000,1216000000.0,57000000.0,1273000000.0,2756000000.0,1710000000.0,431000000.0,6170000000.0,3765000000.0,4470000000.0,2131000000.0,6601000000.0,258000000.0,220000000.0,694000000.0,11538000000.0,0.0,17708000000.0,2378000000.0,513000000.0,0.0,0.0,1484000000.0,4375000000.0,4539000000.0,0.0,452000000.0,2939000000.0,7930000000.0,0.0,792000000.0,12305000000.0,0.0,969000000.0,18906000000.0,-2350000000.0,-12241000000.0,5284000000.0,17589000000.0,119000000.0,17708000000.0,1243000000.0,511000000.0,-5000000.0,39000000.0,207000000.0,0.0,145000000.0,-63000000.0,1795000000.0,85000000.0,2080000000.0,-413000000.0,-643000000.0,-8000000.0,28000000.0,-386000000.0,-1009000000.0,-660000000.0,61000000.0,-325000000.0,-468000000.0,634000000.0,-758000000.0,1000000.0,314000000.0,1216000000.0,902000000.0,1667000000.0,115.505,117.05,111.705,25879600.0,1.98,27.919999999999995,139.625,0.23600240818783866,0.0,-100000000.0,1566152317.8807948,11107000000.0,2378000000.0,1793000000.0,2280000000.0,5284000000.0,-1317000000.0,-1317000000.0,0.11006206259078305,0.5550592946249807,0.028522382147101545,0.03321008847220388,-0.006602403274792024,0.03373828073418724,0.11838109071702099,0.15700514987455433,0.15053479466525815,2.3229273285568066,0.29968308464280996,63.9341494301393,8.248205994090334,7.036724356268468,-1.7433516251582946,22.304769945124526,-1.9755170958210215,5052000000.0,0.9560938682816048,0.24069675376088678,1531000000.0,0.30304829770387964,3779000000.0,3521000000.0,1795000000.0,1.4102857142857144,0.27794285714285716,0.20632090761750405,0.07188841201716738,0.8279712339137018,0.24706347413598373,13.583333333333334,0.6281142857142857,0.29097142857142855,0.10136661395979218,0.4478201942624802,0.28529478201942626,0.21340637000225887,0.9560938682816048,2.3287282361847086,0.7151778955336866,0.2983962051050373,3.351249053747161,-9.343204252088078,1.6401909722222223,0.25197941409342833,0.1852905323039415,0.31269930594635154,5.340711805555555,0.026128266033254157,15146000000.0,,1.834271922767498,0.23523845571536714,1492851294.4009633,13214000000.0,0.11297497308922078,13333000000.0,0.13447836195904897,0.17100427510687768,0.855319629545968,5.060233918128655,inf,12.455592105263158,0.3666704314434154,0.5845862969298641,0.11852219750876304,0.17835445886147153,0.11746436045007086,0.10125367065733001,0.1614297289997299,0.08430377763728052,-0.9438116932422171,0.4314912944738834,0.06574632391833281,0.024395753331827422,0.0817562452687358,0.023322791958436864,0.1096945551128818,1.0676530381748361,0.09656652360515021,0.0,1.3765084473049074,-0.122375524895021,-0.08854166666666667
2020,13834000000,7777000000,6057000000,0.4378,379000000.0,3389000000,502000000,4270000000,12047000000,23000000.0,138000000.0,509000000.0,2009000000.0,0.1444,1787000000,0.1292,-425000000,1362000000,0.0985,291000000,1059000000,0.0766,4.47,4.45,236800000,237900000,1826000000.0,96000000.0,1922000000.0,2726000000.0,1735000000.0,415000000.0,6798000000.0,3974000000.0,5102000000.0,2351000000.0,7453000000.0,267000000.0,379000000.0,685000000.0,12758000000.0,0.0,19556000000.0,2579000000.0,758000000.0,46000000.0,0.0,1494000000.0,4831000000.0,5848000000.0,0.0,435000000.0,2627000000.0,8910000000.0,0.0,857000000.0,13741000000.0,0.0,969000000.0,19469000000.0,-2599000000.0,-12150000000.0,5689000000.0,19430000000.0,126000000.0,19556000000.0,1059000000.0,509000000.0,-47000000.0,44000000.0,172000000.0,0.0,111000000.0,127000000.0,1967000000.0,393000000.0,2130000000.0,-304000000.0,-1169000000.0,-5000000.0,22000000.0,-295000000.0,-1447000000.0,-2423000000.0,54000000.0,0.0,-496000000.0,2806000000.0,-59000000.0,6000000.0,610000000.0,1826000000.0,1216000000.0,1826000000.0,113.89,113.745,110.155,35203450.0,2.1,30.02,140.175,0.21365638766519823,0.0,-115000000.0,1717484581.4977973,12103000000.0,2159000000.0,1500000000.0,2177000000.0,5689000000.0,-1764000000.0,-1764000000.0,0.1319936388607778,0.5595179131583292,0.027396270059274253,0.03628740783576695,-0.008312852392655775,0.03679340754662426,0.10842850946942316,0.15606476796298974,0.15736591007662282,2.3894795747062116,0.3086598236229579,58.420608108108105,7.546452702702703,7.711148648648648,-1.2837837837837838,24.024493243243242,-2.0945945945945947,6606000000.0,1.1611882580418351,0.2764153799576143,2189000000.0,0.331365425370875,4684000000.0,4417000000.0,1967000000.0,1.4071620782446699,0.37797557441523494,0.28273021476904975,0.0982818572305175,0.8491826331516963,0.24703415831458375,10.869565217391305,0.5533015938729041,0.39784723659697785,0.10058294129678871,0.4556146451217018,0.33779914092861524,0.23951728369809777,1.1611882580418351,2.4153629811917736,0.8233432940762876,0.29090816117815504,3.4375109861135527,-7.7896825396825395,2.3315082130413143,0.2909476233726915,0.15843097300050943,0.27233407904548845,6.839721254355401,0.02089009990917348,13834000000.0,,2.0557129367327667,0.18614870803304623,1405196035.2422907,14599000000.0,0.09625289644785881,14725000000.0,0.10186757215619695,0.14784380305602715,0.7074043771732461,4.482420749279539,inf,7.576122672508214,0.30972591532010635,0.5004544327852598,0.11764398804697564,0.1466213921901528,0.11663732302192172,0.0767028022090407,0.12393621416177807,0.07185498237074507,-0.6003401360544217,0.3826683072596238,0.05439416508295239,0.019380241358150953,0.06661979258217612,0.015545101247698916,0.07649723200805233,0.9955512374718757,0.08871957455512375,0.0,1.4683663833805476,-0.30120481927710846,-0.273768043802887
2021,16802000000,10286000000,6516000000,0.3878,439000000.0,3830000000,553000000,4822000000,15108000000,26000000.0,121000000.0,561000000.0,2497000000.0,0.1485,2171000000,0.1292,-356000000,1815000000,0.108,374000000,1439000000,0.0856,6.08,6.08,237400000,239200000,1005000000.0,67000000.0,1072000000.0,3152000000.0,2171000000.0,379000000.0,6774000000.0,4333000000.0,6248000000.0,2783000000.0,9031000000.0,274000000.0,197000000.0,742000000.0,14577000000.0,0.0,21351000000.0,3102000000.0,201000000.0,36000000.0,0.0,1463000000.0,4766000000.0,7265000000.0,0.0,646000000.0,2263000000.0,10174000000.0,0.0,885000000.0,14940000000.0,0.0,969000000.0,20372000000.0,-2750000000.0,-12305000000.0,6286000000.0,21226000000.0,125000000.0,21351000000.0,1439000000.0,561000000.0,35000000.0,57000000.0,-188000000.0,0.0,-279000000.0,295000000.0,-109000000.0,-342000000.0,1562000000.0,-371000000.0,-2137000000.0,371000000.0,0.0,-267000000.0,-2404000000.0,-1457000000.0,47000000.0,-210000000.0,-536000000.0,2249000000.0,93000000.0,-72000000.0,-821000000.0,1005000000.0,1826000000.0,1191000000.0,157.94,160.06,158.575,26413100.0,2.26,32.279999999999994,190.855,0.20606060606060606,0.0,-95000000.0,1094933333.3333333,12320000000.0,2125000000.0,1936000000.0,2170000000.0,6286000000.0,-2745000000.0,-2745000000.0,0.07088441852160457,0.5877839165131983,0.026127841923580527,0.032912748482323534,-0.0056540887989525055,0.03338888227591953,0.11522437805023211,0.12647303892393763,0.12915129151291513,2.2210962690004608,0.2869896440899893,70.77506318449873,9.144903117101938,5.016849199663016,-1.5627632687447346,26.478517270429656,-2.2577927548441448,7466000000.0,1.1877187400572702,0.1346102330565229,1346000000.0,0.18028395392445754,6394000000.0,6120000000.0,2008000000.0,1.4213176668065464,0.21086865295845572,0.15825214053734868,0.05020842115123413,0.7581928094177537,0.2232213947824458,16.0,0.5677717163239614,0.2249265631556861,0.09404711723104305,0.47651163879911945,0.3496791719357407,0.2994707507845066,1.1877187400572702,2.376710149538657,1.0171810372255807,0.2944124396983748,3.396595609290487,-5.442622950819672,2.5606728073688427,0.14358424859362443,0.14524765729585007,0.14613496932515338,5.983179815778935,0.01620680417894455,16802000000.0,,1.507991660875608,0.22892141266306076,1723642424.2424242,16460000000.0,0.1047170367097463,16585000000.0,0.11673198673500151,0.1308411214953271,0.7869420636035783,4.7379087977890375,inf,16.718407960199006,0.3051847688632851,0.5288961038961039,0.0665208586472256,0.12812782634911063,0.06601949552808763,0.09067490984028852,0.15714285714285714,0.08072888502844945,-0.5242258652094718,0.34521158129175944,0.07063616728843511,0.020561097840850546,0.06983773464842508,0.017376235305137933,0.08562197092084006,0.9541473467284904,0.10168142007400122,0.0,1.3724808895066019,-0.3131821998320739,-0.14937925510612735
